sample_index,lead_i_adc,lead_ii_adc,lead_iii_sensor_adc,lead_i_derived,lead_ii_derived,lead_iii_derived,avr_derived,avl_derived,avf_derived
0,2132,1904,141,2132,1904,-228,-2018,1180,838
1,2129,1915,294,2129,1915,-214,-2022,1172,850
2,2103,1975,284,2103,1975,-128,-2039,1116,924
3,2089,2002,187,2089,2002,-87,-2046,1088,958
4,1929,1978,236,1929,1978,49,-1954,940,1014
5,1790,1980,298,1790,1980,190,-1885,800,1085
6,1819,1997,245,1819,1997,178,-1908,820,1088
7,1855,2005,183,1855,2005,150,-1930,852,1078
8,1875,2031,315,1875,2031,156,-1953,860,1094
9,2010,2099,281,2010,2099,89,-2054,960,1094
10,2053,2103,181,2053,2103,50,-2078,1002,1076
11,1903,2037,296,1903,2037,134,-1970,884,1086
12,1911,2031,293,1911,2031,120,-1971,896,1076
13,2007,2036,200,2007,2036,29,-2022,989,1032
14,1961,2003,215,1961,2003,42,-1982,960,1022
15,1917,2003,295,1917,2003,86,-1960,916,1044
16,1990,2025,275,1990,2025,35,-2008,978,1030
17,1943,1995,55,1943,1995,52,-1969,946,1024
18,1925,1961,93,1925,1961,36,-1943,944,998
19,2111,1989,221,2111,1989,-122,-2050,1116,934
20,2007,1960,51,2007,1960,-47,-1984,1027,956
21,1709,1900,57,1709,1900,191,-1804,759,1046
22,1807,1910,55,1807,1910,103,-1858,852,1006
23,1959,1907,43,1959,1907,-52,-1933,1006,928
24,1815,1841,51,1815,1841,26,-1828,894,934
25,1673,1814,55,1673,1814,141,-1744,766,978
26,1673,1818,43,1673,1818,145,-1746,764,982
27,1663,1772,44,1663,1772,109,-1718,777,940
28,1647,1747,53,1647,1747,100,-1697,774,924
29,1791,1787,45,1791,1787,-4,-1789,898,892
30,1913,1791,41,1913,1791,-122,-1852,1018,834
31,1885,1749,55,1885,1749,-136,-1817,1010,806
32,1929,1783,50,1929,1783,-146,-1856,1038,818
33,1991,1817,39,1991,1817,-174,-1904,1082,822
34,2023,1801,51,2023,1801,-222,-1912,1122,790
35,2221,1811,52,2221,1811,-410,-2016,1316,700
36,2423,1797,43,2423,1797,-626,-2110,1524,586
37,2205,1739,42,2205,1739,-466,-1972,1336,636
38,2057,1691,52,2057,1691,-366,-1874,1212,662
39,2403,2037,180,2403,2037,-366,-2220,1384,836
40,2777,2505,59,2777,2505,-272,-2641,1524,1116
41,2571,2621,79,2571,2621,50,-2596,1260,1336
42,2213,2502,71,2213,2502,289,-2358,962,1396
43,1745,2189,51,1745,2189,444,-1967,650,1316
44,1189,1678,47,1189,1678,489,-1434,350,1084
45,1093,1407,42,1093,1407,314,-1250,390,860
46,1321,1493,37,1321,1493,172,-1407,574,832
47,1483,1687,43,1483,1687,204,-1585,640,946
48,1651,1824,55,1651,1824,173,-1738,739,998
49,2007,2013,53,2007,2013,6,-2010,1000,1010
50,2164,2085,51,2164,2085,-79,-2124,1122,1003
51,2003,1994,61,2003,1994,-9,-1998,1006,992
52,1959,1971,55,1959,1971,12,-1965,974,992
53,2152,1967,44,2152,1967,-185,-2060,1168,891
54,2275,1939,53,2275,1939,-336,-2107,1306,802
55,2219,2014,57,2219,2014,-205,-2116,1212,904
56,2119,2011,51,2119,2011,-108,-2065,1114,952
57,1877,1944,47,1877,1944,67,-1910,905,1006
58,1723,1867,55,1723,1867,144,-1795,790,1006
59,1942,1879,99,1942,1879,-63,-1910,1002,908
60,2031,1884,137,2031,1884,-147,-1958,1089,868
61,1919,1829,57,1919,1829,-90,-1874,1004,870
62,2040,1890,53,2040,1890,-150,-1965,1095,870
63,2189,1933,43,2189,1933,-256,-2061,1222,838
64,2041,1836,52,2041,1836,-205,-1938,1123,816
65,2065,1828,55,2065,1828,-237,-1946,1151,796
66,2261,1901,45,2261,1901,-360,-2081,1310,770
67,2253,1929,45,2253,1929,-324,-2091,1288,802
68,2190,1903,56,2190,1903,-287,-2046,1238,808
69,2335,1927,53,2335,1927,-408,-2131,1372,760
70,2203,1863,43,2203,1863,-340,-2033,1272,762
71,1973,1761,56,1973,1761,-212,-1867,1092,774
72,2091,1839,51,2091,1839,-252,-1965,1172,794
73,2141,1868,44,2141,1868,-273,-2004,1207,798
74,2027,1751,51,2027,1751,-276,-1889,1152,738
75,2092,1755,52,2092,1755,-337,-1924,1214,709
76,2321,1809,45,2321,1809,-512,-2065,1416,648
77,2235,1799,43,2235,1799,-436,-2017,1336,682
78,1919,1767,51,1919,1767,-152,-1843,1036,808
79,2070,1791,51,2070,1791,-279,-1930,1174,756
80,2189,1785,112,2189,1785,-404,-1987,1296,690
81,2035,1739,54,2035,1739,-296,-1887,1166,722
82,2196,1828,53,2196,1828,-368,-2012,1282,730
83,2419,1851,42,2419,1851,-568,-2135,1494,642
84,2293,1711,48,2293,1711,-582,-2002,1438,564
85,2125,1688,53,2125,1688,-437,-1906,1281,626
86,2230,1768,42,2230,1768,-462,-1999,1346,653
87,2283,1735,41,2283,1735,-548,-2009,1416,594
88,2270,1679,51,2270,1679,-591,-1974,1430,544
89,2539,1751,45,2539,1751,-788,-2145,1664,482
90,2636,1779,41,2636,1779,-857,-2208,1746,461
91,2459,1725,55,2459,1725,-734,-2092,1596,496
92,2665,1785,52,2665,1785,-880,-2225,1772,452
93,2745,1788,39,2745,1788,-957,-2266,1851,416
94,2397,1717,48,2397,1717,-680,-2057,1538,518
95,2153,1709,53,2153,1709,-444,-1931,1298,632
96,2133,1726,42,2133,1726,-407,-1930,1270,660
97,2065,1655,41,2065,1655,-410,-1860,1238,622
98,1897,1545,47,1897,1545,-352,-1721,1124,596
99,2092,1579,43,2092,1579,-513,-1836,1302,533
100,2125,1575,76,2125,1575,-550,-1850,1338,512
101,1787,1434,275,1787,1434,-353,-1610,1070,540
102,1672,1453,45,1672,1453,-219,-1562,946,617
103,1755,1463,35,1755,1463,-292,-1609,1024,586
104,1685,1397,42,1685,1397,-288,-1541,986,554
105,1701,1417,42,1701,1417,-284,-1559,992,566
106,1934,1465,37,1934,1465,-469,-1700,1202,498
107,1773,1390,35,1773,1390,-383,-1582,1078,504
108,1515,1299,43,1515,1299,-216,-1407,866,542
109,1727,1367,40,1727,1367,-360,-1547,1044,504
110,1811,1423,35,1811,1423,-388,-1617,1100,518
111,1480,1381,47,1480,1381,-99,-1430,790,641
112,1497,1357,40,1497,1357,-140,-1427,818,608
113,1639,1341,31,1639,1341,-298,-1490,968,522
114,1592,1251,40,1592,1251,-341,-1422,966,455
115,1867,1297,41,1867,1297,-570,-1582,1218,364
116,2140,1453,36,2140,1453,-687,-1796,1414,383
117,1811,1417,35,1811,1417,-394,-1614,1102,512
118,1453,1287,42,1453,1287,-166,-1370,810,560
119,1773,1343,41,1773,1343,-430,-1558,1102,456
120,2025,1404,35,2025,1404,-621,-1714,1323,392
121,1624,1357,246,1624,1357,-267,-1490,946,545
122,1579,1378,40,1579,1378,-201,-1478,890,588
123,1720,1465,36,1720,1465,-255,-1592,988,605
124,1519,1368,41,1519,1368,-151,-1444,835,608
125,1438,1311,41,1438,1311,-127,-1374,782,592
126,1684,1389,33,1684,1389,-295,-1536,990,547
127,1711,1398,37,1711,1398,-313,-1554,1012,542
128,1781,1373,45,1781,1373,-408,-1577,1094,482
129,2102,1469,43,2102,1469,-633,-1786,1368,418
130,2083,1512,36,2083,1512,-571,-1798,1327,470
131,1613,1435,49,1613,1435,-178,-1524,896,628
132,1829,1481,43,1829,1481,-348,-1655,1088,566
133,2127,1587,37,2127,1587,-540,-1857,1334,524
134,1715,1485,44,1715,1485,-230,-1600,972,628
135,1310,1399,43,1310,1399,89,-1354,610,744
136,1522,1478,38,1522,1478,-44,-1500,783,717
137,1870,1483,37,1870,1483,-387,-1676,1128,548
138,1785,1507,45,1785,1507,-278,-1646,1032,614
139,1705,1572,41,1705,1572,-133,-1638,919,720
140,1743,1541,37,1743,1541,-202,-1642,972,670
141,1699,1471,158,1699,1471,-228,-1585,964,622
142,1902,1573,253,1902,1573,-329,-1738,1116,622
143,2123,1688,41,2123,1688,-435,-1906,1279,626
144,1716,1637,46,1716,1637,-79,-1676,898,779
145,1469,1589,47,1469,1589,120,-1529,674,854
146,1779,1627,41,1779,1627,-152,-1703,966,738
147,1934,1617,40,1934,1617,-317,-1776,1126,650
148,1675,1623,50,1675,1623,-52,-1649,864,786
149,1639,1759,46,1639,1759,120,-1699,760,940
150,1748,1735,25,1748,1735,-13,-1742,880,861
151,1877,1647,53,1877,1647,-230,-1762,1054,708
152,2245,1783,47,2245,1783,-462,-2014,1354,660
153,2180,1837,41,2180,1837,-343,-2008,1262,747
154,1621,1719,47,1621,1719,98,-1670,762,908
155,1387,1637,47,1387,1637,250,-1512,568,944
156,1764,1673,40,1764,1673,-91,-1718,928,791
157,2132,1691,41,2132,1691,-441,-1912,1286,625
158,2125,1746,53,2125,1746,-379,-1936,1252,684
159,1879,1817,51,1879,1817,-62,-1848,970,878
160,1709,1772,41,1709,1772,63,-1740,823,918
161,1636,1679,55,1636,1679,43,-1658,796,861
162,1818,1721,197,1818,1721,-97,-1770,958,812
163,1948,1771,40,1948,1771,-177,-1860,1062,797
164,1752,1693,47,1752,1693,-59,-1722,906,817
165,1655,1709,52,1655,1709,54,-1682,800,882
166,1820,1804,44,1820,1804,-16,-1812,918,894
167,1735,1747,42,1735,1747,12,-1741,862,880
168,1674,1672,47,1674,1672,-2,-1673,838,835
169,1962,1765,47,1962,1765,-197,-1864,1080,784
170,2137,1787,41,2137,1787,-350,-1962,1244,718
171,1911,1755,55,1911,1755,-156,-1833,1034,800
172,1983,1896,52,1983,1896,-87,-1940,1035,904
173,1996,1992,45,1996,1992,-4,-1994,1000,994
174,1719,1909,53,1719,1909,190,-1814,764,1050
175,1747,1839,55,1747,1839,92,-1793,828,966
176,2215,1895,47,2215,1895,-320,-2055,1268,788
177,1942,1847,45,1942,1847,-95,-1894,1018,876
178,1319,1735,53,1319,1735,416,-1527,452,1076
179,1417,1783,47,1417,1783,366,-1600,526,1074
180,1674,1831,43,1674,1831,157,-1752,758,994
181,1575,1747,55,1575,1747,172,-1661,702,960
182,1660,1771,125,1660,1771,111,-1716,774,941
183,1775,1839,169,1775,1839,64,-1807,856,952
184,1693,1784,53,1693,1784,91,-1738,801,938
185,1547,1802,53,1547,1802,255,-1674,646,1028
186,1636,1867,47,1636,1867,231,-1752,702,1049
187,1733,1835,45,1733,1835,102,-1784,816,968
188,1677,1781,53,1677,1781,104,-1729,786,942
189,1753,1854,51,1753,1854,101,-1804,826,978
190,1676,1852,42,1676,1852,176,-1764,750,1014
191,1563,1775,57,1563,1775,212,-1669,676,994
192,1771,1879,53,1771,1879,108,-1825,832,994
193,1802,1958,45,1802,1958,156,-1880,823,1057
194,1567,1849,53,1567,1849,282,-1708,642,1066
195,1659,1891,56,1659,1891,232,-1775,714,1062
196,1981,2027,51,1981,2027,46,-2004,968,1036
197,1881,2006,50,1881,2006,125,-1944,878,1066
198,1653,1937,57,1653,1937,284,-1795,684,1110
199,1720,1881,51,1720,1881,161,-1800,780,1021
200,1803,1791,42,1803,1791,-12,-1797,908,890
201,1877,1799,56,1877,1799,-78,-1838,978,860
202,2403,2232,62,2403,2232,-171,-2318,1287,1030
203,2790,2678,157,2790,2678,-112,-2734,1451,1283
204,2459,2617,73,2459,2617,158,-2538,1150,1388
205,1957,2315,67,1957,2315,358,-2136,800,1336
206,1735,2095,53,1735,2095,360,-1915,688,1228
207,1471,1810,43,1471,1810,339,-1640,566,1074
208,1227,1588,47,1227,1588,361,-1408,433,974
209,1421,1679,44,1421,1679,258,-1550,582,968
210,1657,1885,44,1657,1885,228,-1771,714,1056
211,1627,1981,59,1627,1981,354,-1804,636,1168
212,1823,2157,59,1823,2157,334,-1990,744,1246
213,2095,2300,53,2095,2300,205,-2198,945,1252
214,2023,2221,61,2023,2221,198,-2122,912,1210
215,1976,2183,61,1976,2183,207,-2080,884,1195
216,2199,2239,54,2199,2239,40,-2219,1080,1140
217,2187,2215,55,2187,2215,28,-2201,1080,1122
218,1975,2183,61,1975,2183,208,-2079,884,1196
219,2111,2278,60,2111,2278,167,-2194,972,1222
220,2127,2277,53,2127,2277,150,-2202,988,1214
221,1853,2151,67,1853,2151,298,-2002,778,1224
222,1975,2189,59,1975,2189,214,-2082,880,1202
223,2265,2269,99,2265,2269,4,-2267,1130,1136
224,2527,2268,213,2527,2268,-259,-2398,1393,1004
225,2406,2345,71,2406,2345,-61,-2376,1234,1142
226,2103,2375,58,2103,2375,272,-2239,916,1324
227,1877,2295,57,1877,2295,418,-2086,730,1356
228,1715,2219,63,1715,2219,504,-1967,606,1362
229,1811,2300,61,1811,2300,489,-2056,661,1394
230,1869,2330,53,1869,2330,461,-2100,704,1396
231,1805,2261,69,1805,2261,456,-2033,674,1358
232,1920,2309,63,1920,2309,389,-2114,766,1349
233,2045,2343,55,2045,2343,298,-2194,874,1320
234,1944,2254,61,1944,2254,310,-2099,817,1282
235,1946,2259,62,1946,2259,313,-2102,816,1286
236,2149,2348,58,2149,2348,199,-2248,975,1274
237,2167,2334,59,2167,2334,167,-2250,1000,1250
238,2117,2293,69,2117,2293,176,-2205,970,1234
239,2345,2380,62,2345,2380,35,-2362,1155,1208
240,2373,2423,57,2373,2423,50,-2398,1162,1236
241,2183,2329,73,2183,2329,146,-2256,1018,1238
242,2341,2392,68,2341,2392,51,-2366,1145,1222
243,2332,2460,57,2332,2460,128,-2396,1102,1294
244,2029,2413,205,2029,2413,384,-2221,822,1398
245,2044,2427,73,2044,2427,383,-2236,830,1405
246,2524,2534,64,2524,2534,10,-2529,1257,1272
247,2684,2543,63,2684,2543,-141,-2614,1412,1201
248,2223,2507,74,2223,2507,284,-2365,970,1396
249,2024,2533,69,2024,2533,509,-2278,758,1521
250,2057,2548,61,2057,2548,491,-2302,783,1520
251,1997,2483,75,1997,2483,486,-2240,756,1484
252,2105,2509,71,2105,2509,404,-2307,850,1456
253,2253,2585,59,2253,2585,332,-2419,960,1458
254,2159,2485,70,2159,2485,326,-2322,916,1406
255,2157,2479,73,2157,2479,322,-2318,918,1400
256,2328,2555,69,2328,2555,227,-2442,1050,1391
257,2281,2517,61,2281,2517,236,-2399,1022,1376
258,2135,2430,71,2135,2430,295,-2282,920,1362
259,2229,2474,69,2229,2474,245,-2352,992,1360
260,2135,2445,57,2135,2445,310,-2290,912,1378
261,1867,2325,72,1867,2325,458,-2096,704,1392
262,1961,2338,63,1961,2338,377,-2150,792,1358
263,2029,2347,55,2029,2347,318,-2188,856,1332
264,1829,2261,148,1829,2261,432,-2045,698,1346
265,1818,2223,328,1818,2223,405,-2020,706,1314
266,1971,2248,59,1971,2248,277,-2110,847,1262
267,1767,2171,53,1767,2171,404,-1969,682,1288
268,1643,2125,60,1643,2125,482,-1884,580,1304
269,2003,2197,59,2003,2197,194,-2100,904,1196
270,2079,2181,51,2079,2181,102,-2130,988,1142
271,1707,2002,62,1707,2002,295,-1854,706,1148
272,1643,2031,55,1643,2031,388,-1837,628,1210
273,1879,2068,47,1879,2068,189,-1974,845,1128
274,1823,1993,55,1823,1993,170,-1908,826,1082
275,1689,1972,56,1689,1972,283,-1830,703,1128
276,1839,1998,53,1839,1998,159,-1918,840,1078
277,1973,1963,50,1973,1963,-10,-1968,992,976
278,1913,1933,57,1913,1933,20,-1923,946,976
279,1963,1979,53,1963,1979,16,-1971,974,998
280,1947,1959,45,1947,1959,12,-1953,968,986
281,1735,1869,59,1735,1869,134,-1802,800,1002
282,1914,1901,53,1914,1901,-13,-1908,964,944
283,2248,1997,45,2248,1997,-251,-2122,1250,873
284,2006,1913,52,2006,1913,-93,-1960,1050,910
285,1645,1839,283,1645,1839,194,-1742,726,1016
286,1657,1865,47,1657,1865,208,-1761,724,1036
287,1714,1849,45,1714,1849,135,-1782,790,992
288,1725,1815,55,1725,1815,90,-1770,818,952
289,1977,1901,52,1977,1901,-76,-1939,1026,912
290,2040,1911,45,2040,1911,-129,-1976,1084,891
291,1805,1815,59,1805,1815,10,-1810,898,912
292,1927,1853,52,1927,1853,-74,-1890,1000,890
293,2204,1938,43,2204,1938,-266,-2071,1235,836
294,2065,1879,51,2065,1879,-186,-1972,1126,846
295,1830,1832,55,1830,1832,2,-1831,914,917
296,2027,1891,47,2027,1891,-136,-1959,1082,878
297,2121,1860,43,2121,1860,-261,-1990,1191,800
298,1827,1804,52,1827,1804,-23,-1816,925,890
299,1774,1875,52,1774,1875,101,-1824,836,988
300,1780,1849,43,1780,1849,69,-1814,856,959
301,1685,1749,55,1685,1749,64,-1717,810,906
302,1995,1820,51,1995,1820,-175,-1908,1085,822
303,2105,1912,43,2105,1912,-193,-2008,1149,860
304,1711,1831,50,1711,1831,120,-1771,796,976
305,1551,1757,153,1551,1757,206,-1654,672,982
306,1957,1807,245,1957,1807,-150,-1882,1054,828
307,2453,1886,46,2453,1886,-567,-2170,1510,660
308,2117,1881,55,2117,1881,-236,-1999,1176,822
309,1561,1897,52,1561,1897,336,-1729,612,1116
310,1429,1833,42,1429,1833,404,-1631,512,1118
311,1421,1721,56,1421,1721,300,-1571,560,1010
312,1581,1751,47,1581,1751,170,-1666,706,960
313,1817,1816,41,1817,1816,-1,-1816,909,908
314,1877,1777,47,1877,1777,-100,-1827,988,838
315,1939,1821,53,1939,1821,-118,-1880,1028,852
316,1995,1912,50,1995,1912,-83,-1954,1039,914
317,1951,1875,45,1951,1875,-76,-1913,1014,900
318,1764,1806,55,1764,1806,42,-1785,861,924
319,2139,1883,53,2139,1883,-256,-2011,1198,814
320,2382,1931,43,2382,1931,-451,-2156,1416,740
321,1814,1901,59,1814,1901,87,-1858,864,994
322,1553,1965,54,1553,1965,412,-1759,570,1188
323,1824,1995,45,1824,1995,171,-1910,826,1083
324,1790,1967,55,1790,1967,177,-1878,806,1072
325,1641,1893,55,1641,1893,252,-1767,694,1072
326,1656,1880,209,1656,1880,224,-1768,716,1052
327,1623,1831,43,1623,1831,208,-1727,708,1020
328,1565,1797,52,1565,1797,232,-1681,666,1014
329,1785,1885,51,1785,1885,100,-1835,842,992
330,1867,1899,44,1867,1899,32,-1883,918,966
331,1675,1787,57,1675,1787,112,-1731,782,950
332,1733,1830,52,1733,1830,97,-1782,818,964
333,1961,1881,44,1961,1881,-80,-1921,1020,900
334,2025,1835,51,2025,1835,-190,-1930,1108,822
335,1917,1881,55,1917,1881,-36,-1899,976,922
336,1643,1911,47,1643,1911,268,-1777,688,1090
337,1470,1800,42,1470,1800,330,-1635,570,1065
338,1405,1709,53,1405,1709,304,-1557,550,1006
339,1629,1781,47,1629,1781,152,-1705,738,966
340,1789,1860,42,1789,1860,71,-1824,859,966
341,1597,1800,57,1597,1800,203,-1698,697,1002
342,1573,1791,53,1573,1791,218,-1682,678,1004
343,1800,1819,41,1800,1819,19,-1810,890,919
344,1619,1740,45,1619,1740,121,-1680,749,930
345,1433,1735,51,1433,1735,302,-1584,566,1018
346,1659,1833,138,1659,1833,174,-1746,742,1004
347,1736,1837,43,1736,1837,101,-1786,818,969
348,1676,1811,35,1676,1811,135,-1744,770,973
349,1833,1903,51,1833,1903,70,-1868,882,986
350,1883,1889,45,1883,1889,6,-1886,938,948
351,1717,1693,55,1717,1693,-24,-1705,870,834
352,1867,1687,47,1867,1687,-180,-1777,1024,754
353,2263,1911,45,2263,1911,-352,-2087,1308,780
354,2463,2271,59,2463,2271,-192,-2367,1328,1040
355,2479,2543,73,2479,2543,64,-2511,1208,1304
356,2613,2577,68,2613,2577,-36,-2595,1324,1270
357,2103,2257,55,2103,2257,154,-2180,974,1206
358,1146,1839,53,1146,1839,693,-1492,226,1266
359,971,1604,45,971,1604,633,-1288,169,1118
360,1235,1543,36,1235,1543,308,-1389,464,926
361,1337,1577,53,1337,1577,240,-1457,548,908
362,1361,1763,47,1361,1763,402,-1562,480,1082
363,1560,1945,43,1560,1945,385,-1752,588,1165
364,1549,1948,53,1549,1948,399,-1748,575,1174
365,1513,1973,55,1513,1973,460,-1743,526,1216
366,1781,2013,52,1781,2013,232,-1897,774,1122
367,1955,1959,153,1955,1959,4,-1957,976,982
368,1741,1892,57,1741,1892,151,-1816,795,1022
369,1757,1949,53,1757,1949,192,-1853,782,1070
370,1709,1949,45,1709,1949,240,-1829,734,1094
371,1507,1848,59,1507,1848,341,-1678,583,1094
372,1653,1875,53,1653,1875,222,-1764,716,1048
373,1913,1919,43,1913,1919,6,-1916,954,962
374,1853,1868,48,1853,1868,15,-1860,919,942
375,1869,1891,55,1869,1891,22,-1880,924,956
376,2109,1979,51,2109,1979,-130,-2044,1120,924
377,2005,1945,46,2005,1945,-60,-1975,1032,942
378,1703,1848,55,1703,1848,145,-1776,779,996
379,1848,1901,51,1848,1901,53,-1874,898,977
380,1958,1933,44,1958,1933,-25,-1946,992,954
381,1853,1865,61,1853,1865,12,-1859,920,938
382,2088,1929,55,2088,1929,-159,-2008,1124,885
383,2269,1995,45,2269,1995,-274,-2132,1272,860
384,1893,1912,51,1893,1912,19,-1902,937,966
385,1720,1899,57,1720,1899,179,-1810,770,1039
386,1947,1971,52,1947,1971,24,-1959,962,998
387,2055,1938,125,2055,1938,-117,-1996,1086,910
388,1993,1915,54,1993,1915,-78,-1954,1036,918
389,2087,2001,55,2087,2001,-86,-2044,1086,958
390,2133,2024,47,2133,2024,-109,-2078,1121,958
391,1915,1931,61,1915,1931,16,-1923,950,974
392,2211,1995,55,2211,1995,-216,-2103,1214,890
393,2447,2079,47,2447,2079,-368,-2263,1408,856
394,1940,1998,53,1940,1998,58,-1969,941,1028
395,1661,1979,55,1661,1979,318,-1820,672,1148
396,1956,2072,53,1956,2072,116,-2014,920,1094
397,2100,2065,47,2100,2065,-35,-2082,1068,1015
398,2053,2031,59,2053,2031,-22,-2042,1038,1004
399,2263,2139,57,2263,2139,-124,-2201,1194,1008
400,2282,2168,51,2282,2168,-114,-2225,1198,1027
401,2054,2087,69,2054,2087,33,-2070,1010,1060
402,2125,2147,59,2125,2147,22,-2136,1052,1084
403,2319,2219,53,2319,2219,-100,-2269,1210,1060
404,2234,2153,57,2234,2153,-81,-2194,1158,1036
405,2138,2157,60,2138,2157,19,-2148,1060,1088
406,2195,2221,55,2195,2221,26,-2208,1084,1124
407,2102,2172,52,2102,2172,70,-2137,1016,1121
408,1938,2103,308,1938,2103,165,-2020,886,1134
409,2082,2163,60,2082,2163,81,-2122,1000,1122
410,2117,2167,51,2117,2167,50,-2142,1034,1108
411,1838,2063,63,1838,2063,225,-1950,806,1144
412,1847,2077,57,1847,2077,230,-1962,808,1154
413,2009,2120,47,2009,2120,111,-2064,949,1116
414,1950,2019,52,1950,2019,69,-1984,940,1044
415,1807,1994,57,1807,1994,187,-1900,810,1090
416,1869,2055,54,1869,2055,186,-1962,842,1120
417,1943,1995,47,1943,1995,52,-1969,946,1024
418,1887,1929,56,1887,1929,42,-1908,922,986
419,1817,1966,54,1817,1966,149,-1892,834,1058
420,1695,1935,45,1695,1935,240,-1815,728,1088
421,1509,1831,59,1509,1831,322,-1670,594,1076
422,1653,1883,54,1653,1883,230,-1768,712,1056
423,1852,1939,43,1852,1939,87,-1896,882,1013
424,1764,1870,47,1764,1870,106,-1817,829,988
425,1711,1851,55,1711,1851,140,-1781,786,996
426,1867,1913,51,1867,1913,46,-1890,910,980
427,1838,1875,44,1838,1875,37,-1856,900,956
428,1702,1823,231,1702,1823,121,-1762,790,972
429,1849,1903,51,1849,1903,54,-1876,898,978
430,1907,1911,25,1907,1911,4,-1909,952,958
431,1749,1831,59,1749,1831,82,-1790,834,956
432,1809,1866,53,1809,1866,57,-1838,876,962
433,1949,1933,44,1949,1933,-16,-1941,982,958
434,1835,1870,51,1835,1870,35,-1852,900,952
435,1787,1848,53,1787,1848,61,-1818,863,954
436,1995,1928,51,1995,1928,-67,-1962,1031,930
437,1967,1898,45,1967,1898,-69,-1932,1018,914
438,1802,1827,53,1802,1827,25,-1814,888,926
439,1946,1899,53,1946,1899,-47,-1922,996,926
440,2066,1917,44,2066,1917,-149,-1992,1108,884
441,1880,1823,59,1880,1823,-57,-1852,968,883
442,1867,1864,53,1867,1864,-3,-1866,935,930
443,2099,1933,45,2099,1933,-166,-2016,1132,884
444,2216,1882,47,2216,1882,-334,-2049,1275,774
445,2092,1913,55,2092,1913,-179,-2002,1136,867
446,1958,1991,52,1958,1991,33,-1974,962,1012
447,1796,1915,47,1796,1915,119,-1856,838,1017
448,1688,1831,58,1688,1831,143,-1760,772,987
449,1898,1900,220,1898,1900,2,-1899,948,951
450,2043,1931,44,2043,1931,-112,-1987,1078,910
451,1929,1855,59,1929,1855,-74,-1892,1002,890
452,1972,1913,55,1972,1913,-59,-1942,1016,927
453,1976,1951,43,1976,1951,-25,-1964,1000,963
454,1733,1865,51,1733,1865,132,-1799,800,998
455,1673,1845,55,1673,1845,172,-1759,750,1008
456,1917,1919,51,1917,1919,2,-1918,958,960
457,2011,1895,45,2011,1895,-116,-1953,1064,890
458,2091,1861,55,2091,1861,-230,-1976,1160,816
459,2303,1999,55,2303,1999,-304,-2151,1304,848
460,2143,2005,45,2143,2005,-138,-2074,1140,934
461,1631,1863,59,1631,1863,232,-1747,700,1048
462,1645,1883,52,1645,1883,238,-1764,704,1060
463,1960,1961,44,1960,1961,1,-1960,980,981
464,1893,1907,49,1893,1907,14,-1900,940,960
465,1813,1912,55,1813,1912,99,-1862,857,1006
466,1919,1995,51,1919,1995,76,-1957,922,1036
467,1899,1943,44,1899,1943,44,-1921,928,994
468,1823,1883,57,1823,1883,60,-1853,882,972
469,2065,2037,175,2065,2037,-28,-2051,1046,1004
470,2169,2078,47,2169,2078,-91,-2124,1130,994
471,1973,1977,62,1973,1977,4,-1975,984,990
472,2013,2037,58,2013,2037,24,-2025,994,1030
473,2191,2100,47,2191,2100,-91,-2146,1141,1004
474,2109,2015,53,2109,2015,-94,-2062,1102,960
475,2025,1999,56,2025,1999,-26,-2012,1026,986
476,2174,2088,55,2174,2088,-86,-2131,1130,1001
477,2280,2087,47,2280,2087,-193,-2184,1236,947
478,2137,2041,58,2137,2041,-96,-2089,1116,972
479,2137,2141,59,2137,2141,4,-2139,1066,1072
480,2005,2117,47,2005,2117,112,-2061,946,1114
481,1719,2021,61,1719,2021,302,-1870,708,1162
482,1701,2068,57,1701,2068,367,-1884,667,1218
483,1778,2091,51,1778,2091,313,-1934,732,1202
484,1689,2013,53,1689,2013,324,-1851,682,1168
485,1716,1992,57,1716,1992,276,-1854,720,1134
486,1901,2063,52,1901,2063,162,-1982,870,1112
487,1867,2030,47,1867,2030,163,-1948,852,1096
488,1721,1977,57,1721,1977,256,-1849,732,1116
489,1883,2055,73,1883,2055,172,-1969,856,1114
490,1993,2076,147,1993,2076,83,-2034,955,1080
491,1817,2002,63,1817,2002,185,-1910,816,1094
492,1867,2034,56,1867,2034,167,-1950,850,1100
493,1978,2075,50,1978,2075,97,-2026,940,1086
494,1823,2006,51,1823,2006,183,-1914,820,1094
495,1785,2013,57,1785,2013,228,-1899,778,1120
496,2036,2107,55,2036,2107,71,-2072,982,1089
497,2032,2014,47,2032,2014,-18,-2023,1025,998
498,1931,1887,56,1931,1887,-44,-1909,988,922
499,2227,1971,52,2227,1971,-256,-2099,1242,858
500,2524,2223,51,2524,2223,-301,-2374,1412,961
501,2483,2585,78,2483,2585,102,-2534,1190,1344
502,2525,2869,79,2525,2869,344,-2697,1090,1606
503,2530,2839,71,2530,2839,309,-2684,1110,1574
504,2032,2477,61,2032,2477,445,-2254,794,1461
505,1487,2127,61,1487,2127,640,-1807,424,1384
506,1435,1967,53,1435,1967,532,-1701,452,1250
507,1509,1947,47,1509,1947,438,-1728,536,1192
508,1433,2007,57,1433,2007,574,-1720,430,1290
509,1637,2133,57,1637,2133,496,-1885,570,1314
510,1874,2227,121,1874,2227,353,-2050,760,1290
511,1939,2253,70,1939,2253,314,-2096,812,1284
512,2067,2312,61,2067,2312,245,-2190,911,1278
513,2150,2321,53,2150,2321,171,-2236,990,1246
514,2037,2231,55,2037,2231,194,-2134,922,1212
515,2023,2205,60,2023,2205,182,-2114,920,1194
516,2207,2237,57,2207,2237,30,-2222,1088,1134
517,2199,2200,55,2199,2200,1,-2200,1099,1100
518,2116,2155,61,2116,2155,39,-2136,1038,1097
519,2347,2216,59,2347,2216,-131,-2282,1239,1042
520,2479,2227,53,2479,2227,-252,-2353,1366,988
521,2231,2165,69,2231,2165,-66,-2198,1148,1050
522,2222,2223,61,2222,2223,1,-2222,1110,1112
523,2251,2228,51,2251,2228,-23,-2240,1137,1102
524,2131,2127,55,2131,2127,-4,-2129,1068,1062
525,2175,2127,59,2175,2127,-48,-2151,1112,1040
526,2313,2196,55,2313,2196,-117,-2254,1215,1040
527,2197,2157,52,2197,2157,-40,-2177,1118,1058
528,2030,2071,59,2030,2071,41,-2050,994,1056
529,2230,2107,56,2230,2107,-123,-2168,1176,992
530,2345,2123,75,2345,2123,-222,-2234,1284,950
531,2163,2055,267,2163,2055,-108,-2109,1136,974
532,2199,2085,59,2199,2085,-114,-2142,1156,986
533,2344,2111,47,2344,2111,-233,-2228,1288,939
534,2331,2099,53,2331,2099,-232,-2215,1282,934
535,2303,2125,59,2303,2125,-178,-2214,1240,974
536,2389,2145,54,2389,2145,-244,-2267,1316,950
537,2341,2118,51,2341,2118,-223,-2230,1282,948
538,2249,2087,59,2249,2087,-162,-2168,1206,962
539,2423,2141,57,2423,2141,-282,-2282,1352,930
540,2549,2184,53,2549,2184,-365,-2366,1457,910
541,2375,2149,69,2375,2149,-226,-2262,1300,962
542,2333,2171,59,2333,2171,-162,-2252,1248,1004
543,2389,2188,51,2389,2188,-201,-2288,1295,994
544,2317,2143,55,2317,2143,-174,-2230,1246,984
545,2418,2182,59,2418,2182,-236,-2300,1327,973
546,2651,2265,57,2651,2265,-386,-2458,1518,940
547,2558,2287,53,2558,2287,-271,-2422,1414,1008
548,2211,2217,68,2211,2217,6,-2214,1102,1112
549,2163,2201,57,2163,2201,38,-2182,1062,1120
550,2279,2207,54,2279,2207,-72,-2243,1176,1068
551,2284,2174,243,2284,2174,-110,-2229,1197,1032
552,2378,2217,59,2378,2217,-161,-2298,1270,1028
553,2451,2233,53,2451,2233,-218,-2342,1334,1008
554,2359,2188,55,2359,2188,-171,-2274,1265,1008
555,2275,2170,61,2275,2170,-105,-2222,1190,1032
556,2297,2169,55,2297,2169,-128,-2233,1212,1020
557,2239,2123,53,2239,2123,-116,-2181,1178,1004
558,2105,2069,60,2105,2069,-36,-2087,1070,1016
559,2141,2079,57,2141,2079,-62,-2110,1102,1008
560,2139,2027,47,2139,2027,-112,-2083,1126,958
561,1939,1949,61,1939,1949,10,-1944,964,980
562,1902,1931,55,1902,1931,29,-1916,936,980
563,2026,1892,43,2026,1892,-134,-1959,1080,879
564,2085,1847,46,2085,1847,-238,-1966,1162,804
565,2173,1867,55,2173,1867,-306,-2020,1240,780
566,2194,1896,49,2194,1896,-298,-2045,1246,799
567,1933,1827,45,1933,1827,-106,-1880,1020,860
568,1701,1758,53,1701,1758,57,-1730,822,908
569,1783,1755,47,1783,1755,-28,-1769,906,864
570,1902,1754,40,1902,1754,-148,-1828,1025,803
571,1875,1715,127,1875,1715,-160,-1795,1018,778
572,1913,1721,253,1913,1721,-192,-1817,1052,764
573,1993,1737,43,1993,1737,-256,-1865,1124,740
574,1932,1704,28,1932,1704,-228,-1818,1080,738
575,1891,1705,53,1891,1705,-186,-1798,1038,760
576,1965,1689,35,1965,1689,-276,-1827,1120,706
577,1960,1657,41,1960,1657,-303,-1808,1132,677
578,1893,1643,35,1893,1643,-250,-1768,1072,696
579,1998,1691,29,1998,1691,-307,-1844,1152,692
580,2067,1717,33,2067,1717,-350,-1892,1208,684
581,1976,1695,37,1976,1695,-281,-1836,1128,707
582,1947,1699,31,1947,1699,-248,-1823,1098,726
583,1964,1703,23,1964,1703,-261,-1834,1112,721
584,1919,1682,41,1919,1682,-237,-1800,1078,722
585,1925,1678,30,1925,1678,-247,-1802,1086,716
586,2023,1703,40,2023,1703,-320,-1863,1172,692
587,2043,1695,39,2043,1695,-348,-1869,1196,674
588,1991,1679,51,1991,1679,-312,-1835,1152,684
589,2053,1703,47,2053,1703,-350,-1878,1202,676
590,2059,1699,39,2059,1699,-360,-1879,1210,670
591,1948,1660,40,1948,1660,-288,-1804,1118,686
592,1949,1669,185,1949,1669,-280,-1809,1114,694
593,2013,1693,169,2013,1693,-320,-1853,1166,686
594,1963,1691,187,1963,1691,-272,-1827,1118,710
595,1928,1709,303,1928,1709,-219,-1818,1074,745
596,1983,1753,253,1983,1753,-230,-1868,1106,762
597,1963,1759,179,1963,1759,-204,-1861,1084,778
598,1879,1754,315,1879,1754,-125,-1816,1002,814
599,1931,1784,284,1931,1784,-147,-1858,1039,818
600,1950,1802,181,1950,1802,-148,-1876,1049,827
601,1863,1783,275,1863,1783,-80,-1823,972,852
602,1877,1791,299,1877,1791,-86,-1834,982,852
603,1957,1830,218,1957,1830,-127,-1894,1042,852
604,1944,1833,197,1944,1833,-111,-1888,1028,861
605,1898,1817,307,1898,1817,-81,-1858,990,868
606,1951,1811,265,1951,1811,-140,-1881,1046,836
607,1959,1805,174,1959,1805,-154,-1882,1056,826
608,1933,1819,312,1933,1819,-114,-1876,1024,852
609,2021,1873,51,2021,1873,-148,-1947,1084,862
610,2073,1886,43,2073,1886,-187,-1980,1130,850
611,2011,1870,59,2011,1870,-141,-1940,1076,864
612,2029,1869,107,2029,1869,-160,-1949,1094,854
613,2079,1871,169,2079,1871,-208,-1975,1144,832
614,2056,1875,47,2056,1875,-181,-1966,1118,847
615,2045,1900,39,2045,1900,-145,-1972,1095,878
616,2109,1927,41,2109,1927,-182,-2018,1146,872
617,2099,1908,27,2099,1908,-191,-2004,1145,858
618,2007,1869,39,2007,1869,-138,-1938,1072,866
619,2031,1853,31,2031,1853,-178,-1942,1104,838
620,2045,1823,26,2045,1823,-222,-1934,1134,800
621,1944,1770,39,1944,1770,-174,-1857,1059,798
622,1943,1759,31,1943,1759,-184,-1851,1064,788
623,1977,1751,24,1977,1751,-226,-1864,1102,762
624,1916,1717,25,1916,1717,-199,-1816,1058,759
625,1879,1703,31,1879,1703,-176,-1791,1028,764
626,1942,1710,28,1942,1710,-232,-1826,1087,739
627,1939,1699,25,1939,1699,-240,-1819,1090,730
628,1861,1672,35,1861,1672,-189,-1766,1025,742
629,1881,1675,29,1881,1675,-206,-1778,1044,734
630,1897,1673,21,1897,1673,-224,-1785,1060,724
631,1823,1653,51,1823,1653,-170,-1738,996,742
632,1847,1669,37,1847,1669,-178,-1758,1012,746
633,1907,1685,135,1907,1685,-222,-1796,1064,732
634,1847,1671,43,1847,1671,-176,-1759,1012,748
635,1812,1674,45,1812,1674,-138,-1743,975,768
636,1881,1692,43,1881,1692,-189,-1786,1035,752
637,1877,1683,25,1877,1683,-194,-1780,1036,744
638,1815,1669,53,1815,1669,-146,-1742,980,762
639,1867,1683,47,1867,1683,-184,-1775,1026,750
640,1899,1689,35,1899,1689,-210,-1794,1054,740
641,1846,1683,57,1846,1683,-163,-1764,1004,760
642,1911,1720,51,1911,1720,-191,-1816,1051,764
643,1975,1690,40,1975,1690,-285,-1832,1130,702
644,1879,1559,39,1879,1559,-320,-1719,1100,620
645,1869,1519,47,1869,1519,-350,-1694,1110,584
646,2206,1780,45,2206,1780,-426,-1993,1316,677
647,2651,2295,41,2651,2295,-356,-2473,1504,970
648,2719,2612,77,2719,2612,-107,-2666,1413,1252
649,2531,2615,53,2531,2615,84,-2573,1224,1350
650,2075,2327,51,2075,2327,252,-2201,912,1290
651,1485,1895,42,1485,1895,410,-1690,538,1152
652,1179,1589,36,1179,1589,410,-1384,384,1000
653,1197,1525,77,1197,1525,328,-1361,434,926
654,1338,1659,173,1338,1659,321,-1498,508,990
655,1493,1813,53,1493,1813,320,-1653,586,1066
656,1699,1931,52,1699,1931,232,-1815,734,1082
657,1822,1997,50,1822,1997,175,-1910,824,1086
658,1805,1975,59,1805,1975,170,-1890,818,1072
659,1851,1956,53,1851,1956,105,-1904,873,1030
660,1876,1919,44,1876,1919,43,-1898,916,981
661,1811,1879,60,1811,1879,68,-1845,872,974
662,1831,1883,53,1831,1883,52,-1857,890,968
663,1893,1889,44,1893,1889,-4,-1891,948,942
664,1865,1869,45,1865,1869,4,-1867,930,936
665,1839,1867,54,1839,1867,28,-1853,906,948
666,1895,1876,46,1895,1876,-19,-1886,957,928
667,1883,1853,45,1883,1853,-30,-1868,956,912
668,1819,1833,57,1819,1833,14,-1826,902,924
669,1879,1843,51,1879,1843,-36,-1861,958,904
670,1927,1839,41,1927,1839,-88,-1883,1008,876
671,1875,1819,57,1875,1819,-56,-1847,966,882
672,1895,1827,52,1895,1827,-68,-1861,982,880
673,1961,1842,43,1961,1842,-119,-1902,1040,862
674,1927,1821,159,1927,1821,-106,-1874,1016,858
675,1899,1828,53,1899,1828,-71,-1864,985,878
676,1961,1853,29,1961,1853,-108,-1907,1034,872
677,1962,1855,45,1962,1855,-107,-1908,1034,874
678,1910,1849,39,1910,1849,-61,-1880,986,894
679,1975,1877,39,1975,1877,-98,-1926,1036,890
680,2013,1881,25,2013,1881,-132,-1947,1072,874
681,1949,1861,59,1949,1861,-88,-1905,1018,886
682,1973,1881,36,1973,1881,-92,-1927,1032,894
683,2039,1907,46,2039,1907,-132,-1973,1086,888
684,2003,1902,39,2003,1902,-101,-1952,1052,900
685,1981,1908,56,1981,1908,-73,-1944,1027,918
686,2063,1934,31,2063,1934,-129,-1998,1096,902
687,2071,1941,29,2071,1941,-130,-2006,1100,906
688,2011,1939,43,2011,1939,-72,-1975,1042,934
689,2075,1967,55,2075,1967,-108,-2021,1092,930
690,2117,1990,28,2117,1990,-127,-2054,1122,932
691,2057,1989,57,2057,1989,-68,-2023,1062,960
692,2070,2017,57,2070,2017,-53,-2044,1062,982
693,2131,2043,51,2131,2043,-88,-2087,1110,978
694,2095,2042,118,2095,2042,-53,-2068,1074,994
695,2072,2063,303,2072,2063,-9,-2068,1040,1027
696,2121,2091,57,2121,2091,-30,-2106,1076,1030
697,2105,2101,51,2105,2101,-4,-2103,1054,1048
698,2024,2088,63,2024,2088,64,-2056,980,1076
699,2053,2095,41,2053,2095,42,-2074,1006,1068
700,2055,2092,31,2055,2092,37,-2074,1009,1064
701,1957,2055,59,1957,2055,98,-2006,930,1076
702,1928,2037,40,1928,2037,109,-1982,910,1073
703,1947,2025,47,1947,2025,78,-1986,934,1052
704,1869,1979,31,1869,1979,110,-1924,880,1044
705,1788,1945,57,1788,1945,157,-1866,816,1051
706,1810,1929,45,1810,1929,119,-1870,846,1024
707,1771,1891,29,1771,1891,120,-1831,826,1006
708,1673,1852,55,1673,1852,179,-1762,747,1016
709,1699,1853,37,1699,1853,154,-1776,772,1004
710,1715,1854,41,1715,1854,139,-1784,788,996
711,1637,1822,45,1637,1822,185,-1730,726,1004
712,1645,1829,36,1645,1829,184,-1737,730,1006
713,1695,1835,35,1695,1835,140,-1765,778,988
714,1656,1817,27,1656,1817,161,-1736,748,989
715,1623,1813,246,1623,1813,190,-1718,716,1002
716,1671,1837,47,1671,1837,166,-1754,752,1002
717,1662,1839,45,1662,1839,177,-1750,742,1008
718,1604,1823,45,1604,1823,219,-1714,692,1021
719,1648,1837,51,1648,1837,189,-1742,730,1013
720,1689,1839,26,1689,1839,150,-1764,770,994
721,1623,1820,59,1623,1820,197,-1722,713,1008
722,1636,1834,51,1636,1834,198,-1735,719,1016
723,1696,1847,26,1696,1847,151,-1772,772,999
724,1663,1832,26,1663,1832,169,-1748,747,1000
725,1641,1833,37,1641,1833,192,-1737,724,1012
726,1703,1852,28,1703,1852,149,-1778,777,1000
727,1707,1851,43,1707,1851,144,-1779,782,998
728,1669,1848,57,1669,1848,179,-1758,745,1014
729,1725,1876,31,1725,1876,151,-1800,787,1014
730,1769,1885,43,1769,1885,116,-1827,826,1000
731,1711,1869,58,1711,1869,158,-1790,776,1014
732,1735,1883,53,1735,1883,148,-1809,794,1016
733,1813,1896,29,1813,1896,83,-1854,865,990
734,1789,1886,39,1789,1886,97,-1838,846,992
735,1771,1897,142,1771,1897,126,-1834,822,1012
736,1835,1917,235,1835,1917,82,-1876,876,1000
737,1828,1919,37,1828,1919,91,-1874,868,1005
738,1761,1903,59,1761,1903,142,-1832,810,1022
739,1810,1918,40,1810,1918,108,-1864,851,1013
740,1848,1919,29,1848,1919,71,-1884,888,995
741,1797,1899,58,1797,1899,102,-1848,848,1000
742,1813,1914,44,1813,1914,101,-1864,856,1008
743,1868,1933,45,1868,1933,65,-1900,902,999
744,1832,1918,47,1832,1918,86,-1875,873,1002
745,1807,1917,37,1807,1917,110,-1862,848,1014
746,1867,1931,51,1867,1931,64,-1899,902,998
747,1867,1926,45,1867,1926,59,-1896,904,992
748,1807,1911,59,1807,1911,104,-1859,852,1008
749,1861,1931,53,1861,1931,70,-1896,896,1000
750,1899,1941,31,1899,1941,42,-1920,928,992
751,1849,1935,43,1849,1935,86,-1892,882,1010
752,1882,1951,56,1882,1951,69,-1916,906,1010
753,1963,1976,46,1963,1976,13,-1970,975,994
754,1943,1967,41,1943,1967,24,-1955,960,996
755,1911,1982,42,1911,1982,71,-1946,920,1026
756,1956,1995,219,1956,1995,39,-1976,958,1017
757,1959,2004,51,1959,2004,45,-1982,957,1024
758,1919,2035,53,1919,2035,116,-1977,902,1076
759,1979,2085,57,1979,2085,106,-2032,936,1096
760,2020,2099,30,2020,2099,79,-2060,970,1089
761,1935,2074,46,1935,2074,139,-2004,898,1106
762,1897,2063,56,1897,2063,166,-1980,866,1114
763,1925,2041,31,1925,2041,116,-1983,904,1078
764,1864,2004,30,1864,2004,140,-1934,862,1072
765,1810,1981,57,1810,1981,171,-1896,820,1076
766,1855,1983,45,1855,1983,128,-1919,864,1056
767,1845,1967,28,1845,1967,122,-1906,862,1044
768,1773,1940,46,1773,1940,167,-1856,803,1054
769,1813,1943,37,1813,1943,130,-1878,842,1036
770,1846,1941,30,1846,1941,95,-1894,876,1018
771,1787,1919,59,1787,1919,132,-1853,828,1026
772,1807,1928,36,1807,1928,121,-1868,843,1024
773,1878,1928,27,1878,1928,50,-1903,914,989
774,1866,1903,38,1866,1903,37,-1884,914,970
775,1849,1895,55,1849,1895,46,-1872,902,970
776,1930,1909,125,1930,1909,-21,-1920,976,944
777,1949,1909,170,1949,1909,-40,-1929,994,934
778,1885,1911,59,1885,1911,26,-1898,930,968
779,1937,1939,47,1937,1939,2,-1938,968,970
780,1973,1943,69,1973,1943,-30,-1958,1002,956
781,1911,1918,71,1911,1918,7,-1914,952,962
782,1931,1939,37,1931,1939,8,-1935,962,974
783,1983,1947,63,1983,1947,-36,-1965,1010,956
784,1960,1935,74,1960,1935,-25,-1948,992,955
785,1976,1956,80,1976,1956,-20,-1966,998,968
786,2066,1928,71,2066,1928,-138,-1997,1102,895
787,2024,1801,63,2024,1801,-223,-1912,1124,789
788,1975,1743,76,1975,1743,-232,-1859,1104,756
789,2270,1945,59,2270,1945,-325,-2108,1298,810
790,2785,2459,82,2785,2459,-326,-2622,1556,1066
791,2908,2815,85,2908,2815,-93,-2862,1500,1361
792,2681,2863,99,2681,2863,182,-2772,1250,1522
793,2229,2600,61,2229,2600,371,-2414,929,1486
794,1642,2173,53,1642,2173,531,-1908,556,1352
795,1257,1839,55,1257,1839,582,-1548,338,1210
796,1275,1767,45,1275,1767,492,-1521,392,1130
797,1453,1883,147,1453,1883,430,-1668,512,1156
798,1590,2031,62,1590,2031,441,-1810,574,1236
799,1797,2159,57,1797,2159,362,-1978,718,1260
800,1961,2247,51,1961,2247,286,-2104,838,1266
801,1946,2217,69,1946,2217,271,-2082,838,1244
802,1957,2183,60,1957,2183,226,-2070,866,1204
803,2004,2150,53,2004,2150,146,-2077,929,1148
804,1966,2123,55,1966,2123,157,-2044,904,1140
805,1937,2111,59,1937,2111,174,-2024,882,1142
806,1993,2118,56,1993,2118,125,-2056,934,1122
807,1993,2099,51,1993,2099,106,-2046,944,1102
808,1929,2072,61,1929,2072,143,-2000,893,1108
809,1977,2075,56,1977,2075,98,-2026,940,1086
810,2025,2065,46,2025,2065,40,-2045,992,1052
811,1975,2043,61,1975,2043,68,-2009,954,1056
812,1992,2041,56,1992,2041,49,-2016,972,1045
813,2045,2042,47,2045,2042,-3,-2044,1024,1020
814,2011,2021,52,2011,2021,10,-2016,1000,1016
815,1977,2012,57,1977,2012,35,-1994,971,1024
816,2035,2021,53,2035,2021,-14,-2028,1024,1004
817,2035,2011,117,2035,2011,-24,-2023,1030,994
818,1973,1997,345,1973,1997,24,-1985,974,1010
819,2019,2017,58,2019,2017,-2,-2018,1010,1008
820,2055,2021,46,2055,2021,-34,-2038,1044,994
821,1997,2004,59,1997,2004,7,-2000,995,1006
822,2023,2015,55,2023,2015,-8,-2019,1016,1004
823,2091,2025,49,2091,2025,-66,-2058,1078,980
824,2063,2003,50,2063,2003,-60,-2033,1062,972
825,2025,1992,57,2025,1992,-33,-2008,1029,980
826,2088,2003,52,2088,2003,-85,-2046,1086,959
827,2099,1995,44,2099,1995,-104,-2047,1102,946
828,2059,1989,59,2059,1989,-70,-2024,1064,960
829,2124,2007,53,2124,2007,-117,-2066,1120,945
830,2168,2015,45,2168,2015,-153,-2092,1160,931
831,2120,2005,60,2120,2005,-115,-2062,1118,945
832,2150,2035,55,2150,2035,-115,-2092,1132,960
833,2229,2073,47,2229,2073,-156,-2151,1192,958
834,2199,2067,53,2199,2067,-132,-2133,1166,968
835,2165,2063,57,2165,2063,-102,-2114,1134,980
836,2229,2086,53,2229,2086,-143,-2158,1186,972
837,2227,2089,47,2227,2089,-138,-2158,1182,976
838,2155,2083,311,2155,2083,-72,-2119,1114,1006
839,2198,2110,299,2198,2110,-88,-2154,1143,1011
840,2217,2131,51,2217,2131,-86,-2174,1152,1022
841,2131,2116,62,2131,2116,-15,-2124,1073,1050
842,2123,2119,59,2123,2119,-4,-2121,1064,1058
843,2158,2120,51,2158,2120,-38,-2139,1098,1041
844,2088,2079,53,2088,2079,-9,-2084,1048,1035
845,2003,2041,59,2003,2041,38,-2022,982,1040
846,2013,2021,51,2013,2021,8,-2017,1002,1014
847,1971,1983,45,1971,1983,12,-1977,980,998
848,1868,1945,59,1868,1945,77,-1906,896,1011
849,1881,1931,52,1881,1931,50,-1906,916,990
850,1883,1895,43,1883,1895,12,-1889,936,954
851,1789,1839,57,1789,1839,50,-1814,870,944
852,1785,1823,51,1785,1823,38,-1804,874,930
853,1830,1819,43,1830,1819,-11,-1824,920,904
854,1775,1789,43,1775,1789,14,-1782,880,902
855,1721,1773,51,1721,1773,52,-1747,834,912
856,1767,1775,45,1767,1775,8,-1771,880,892
857,1773,1763,41,1773,1763,-10,-1768,892,876
858,1707,1739,216,1707,1739,32,-1723,838,886
859,1751,1748,261,1751,1748,-3,-1750,877,872
860,1775,1748,185,1775,1748,-27,-1762,901,860
861,1709,1736,54,1709,1736,27,-1722,841,882
862,1721,1741,47,1721,1741,20,-1731,850,880
863,1785,1747,41,1785,1747,-38,-1766,912,854
864,1759,1724,43,1759,1724,-35,-1742,897,844
865,1725,1720,51,1725,1720,-5,-1722,865,858
866,1801,1741,45,1801,1741,-60,-1771,930,840
867,1820,1739,39,1820,1739,-81,-1780,950,829
868,1757,1727,54,1757,1727,-30,-1742,894,848
869,1813,1747,47,1813,1747,-66,-1780,940,840
870,1865,1751,40,1865,1751,-114,-1808,990,818
871,1807,1737,53,1807,1737,-70,-1772,938,834
872,1833,1752,47,1833,1752,-81,-1792,957,836
873,1899,1762,41,1899,1762,-137,-1830,1018,812
874,1869,1747,43,1869,1747,-122,-1808,996,812
875,1833,1746,51,1833,1746,-87,-1790,960,830
876,1903,1768,45,1903,1768,-135,-1836,1019,816
877,1917,1765,41,1917,1765,-152,-1841,1034,806
878,1849,1752,53,1849,1752,-97,-1800,973,828
879,1890,1771,229,1890,1771,-119,-1830,1004,826
880,1913,1785,41,1913,1785,-128,-1849,1020,828
881,1845,1769,55,1845,1769,-76,-1807,960,846
882,1855,1775,51,1855,1775,-80,-1815,968,848
883,1911,1788,42,1911,1788,-123,-1850,1017,832
884,1869,1774,43,1869,1774,-95,-1822,982,840
885,1828,1770,52,1828,1770,-58,-1799,943,856
886,1884,1782,44,1884,1782,-102,-1833,993,840
887,1901,1779,41,1901,1779,-122,-1840,1012,828
888,1864,1770,55,1864,1770,-94,-1817,979,838
889,1915,1789,47,1915,1789,-126,-1852,1020,832
890,1973,1813,40,1973,1813,-160,-1893,1066,826
891,1932,1809,56,1932,1809,-123,-1870,1028,843
892,1943,1828,51,1943,1828,-115,-1886,1029,856
893,2005,1853,43,2005,1853,-152,-1929,1078,850
894,1967,1849,45,1967,1849,-118,-1908,1042,866
895,1919,1845,53,1919,1845,-74,-1882,996,886
896,1995,1875,45,1995,1875,-120,-1935,1058,878
897,2031,1908,45,2031,1908,-123,-1970,1077,892
898,1959,1909,56,1959,1909,-50,-1934,1004,930
899,1981,1913,163,1981,1913,-68,-1947,1024,922
900,1991,1897,41,1991,1897,-94,-1944,1042,902
901,1897,1863,57,1897,1863,-34,-1880,966,914
902,1885,1851,53,1885,1851,-34,-1868,960,908
903,1933,1855,43,1933,1855,-78,-1894,1006,888
904,1891,1845,45,1891,1845,-46,-1868,968,900
905,1843,1830,55,1843,1830,-13,-1836,928,908
906,1879,1822,47,1879,1822,-57,-1850,968,882
907,1875,1809,43,1875,1809,-66,-1842,970,872
908,1807,1797,55,1807,1797,-10,-1802,908,894
909,1843,1811,47,1843,1811,-32,-1827,938,890
910,1870,1804,38,1870,1804,-66,-1837,968,869
911,1800,1770,53,1800,1770,-30,-1785,915,870
912,1805,1779,51,1805,1779,-26,-1792,916,876
913,1867,1799,42,1867,1799,-68,-1833,968,866
914,1837,1785,42,1837,1785,-52,-1811,944,866
915,1797,1781,53,1797,1781,-16,-1789,906,882
916,1848,1799,45,1848,1799,-49,-1824,948,875
917,1853,1797,42,1853,1797,-56,-1825,954,870
918,1791,1785,56,1791,1785,-6,-1788,898,890
919,1845,1804,48,1845,1804,-41,-1824,943,882
920,1881,1805,136,1881,1805,-76,-1843,978,864
921,1816,1803,253,1816,1803,-13,-1810,914,895
922,1817,1831,55,1817,1831,14,-1824,902,922
923,1885,1868,43,1885,1868,-17,-1876,951,926
924,1911,1885,44,1911,1885,-26,-1898,968,930
925,1894,1839,53,1894,1839,-55,-1866,974,892
926,1895,1725,42,1895,1725,-170,-1810,1032,778
927,1909,1671,38,1909,1671,-238,-1790,1074,716
928,2092,1837,57,2092,1837,-255,-1964,1174,791
929,2579,2339,61,2579,2339,-240,-2459,1410,1050
930,2771,2679,61,2771,2679,-92,-2725,1432,1294
931,2483,2665,78,2483,2665,182,-2574,1150,1424
932,2041,2411,68,2041,2411,370,-2226,836,1390
933,1591,2015,47,1591,2015,424,-1803,584,1220
934,1223,1672,41,1223,1672,449,-1448,387,1060
935,1139,1578,45,1139,1578,439,-1358,350,1008
936,1368,1735,45,1368,1735,367,-1552,500,1051
937,1587,1909,43,1587,1909,322,-1748,632,1116
938,1695,2030,61,1695,2030,335,-1862,680,1182
939,1863,2135,57,1863,2135,272,-1999,796,1204
940,1935,2127,109,1935,2127,192,-2031,872,1160
941,1866,2071,59,1866,2071,205,-1968,830,1138
942,1863,2044,57,1863,2044,181,-1954,841,1112
943,1915,2041,47,1915,2041,126,-1978,894,1084
944,1893,2025,51,1893,2025,132,-1959,880,1078
945,1871,2023,57,1871,2023,152,-1947,860,1088
946,1939,2027,52,1939,2027,88,-1983,926,1058
947,1951,2013,47,1951,2013,62,-1982,944,1038
948,1903,1994,59,1903,1994,91,-1948,906,1042
949,1965,2003,55,1965,2003,38,-1984,964,1020
950,2013,1998,45,2013,1998,-15,-2006,1014,992
951,1963,1973,58,1963,1973,10,-1968,976,992
952,1980,1978,53,1980,1978,-2,-1979,991,988
953,2040,1980,45,2040,1980,-60,-2010,1050,960
954,2012,1964,45,2012,1964,-48,-1988,1030,958
955,1983,1961,56,1983,1961,-22,-1972,1002,970
956,2063,1975,51,2063,1975,-88,-2019,1076,944
957,2083,1967,43,2083,1967,-116,-2025,1100,926
958,2035,1956,61,2035,1956,-79,-1996,1057,938
959,2091,1967,53,2091,1967,-124,-2029,1108,922
960,2129,1976,45,2129,1976,-153,-2052,1141,912
961,2068,1961,235,2068,1961,-107,-2014,1088,927
962,2079,1979,59,2079,1979,-100,-2029,1090,940
963,2145,1995,45,2145,1995,-150,-2070,1148,922
964,2120,1993,51,2120,1993,-127,-2056,1124,933
965,2095,2007,55,2095,2007,-88,-2051,1092,960
966,2171,2031,53,2171,2031,-140,-2101,1156,946
967,2189,2035,46,2189,2035,-154,-2112,1172,940
968,2133,2031,59,2133,2031,-102,-2082,1118,964
969,2183,2063,57,2183,2063,-120,-2123,1152,972
970,2233,2078,45,2233,2078,-155,-2156,1194,962
971,2189,2079,61,2189,2079,-110,-2134,1150,984
972,2203,2103,57,2203,2103,-100,-2153,1152,1002
973,2267,2131,47,2267,2131,-136,-2199,1202,998
974,2229,2125,52,2229,2125,-104,-2177,1166,1010
975,2191,2131,60,2191,2131,-60,-2161,1126,1036
976,2251,2151,53,2251,2151,-100,-2201,1176,1026
977,2249,2150,51,2249,2150,-99,-2200,1174,1026
978,2183,2147,61,2183,2147,-36,-2165,1110,1056
979,2217,2165,55,2217,2165,-52,-2191,1134,1056
980,2245,2170,47,2245,2170,-75,-2208,1160,1048
981,2155,2149,215,2155,2149,-6,-2152,1080,1072
982,2109,2139,59,2109,2139,30,-2124,1040,1084
983,2119,2139,51,2119,2139,20,-2129,1050,1080
984,2039,2102,51,2039,2102,63,-2070,988,1082
985,1963,2073,57,1963,2073,110,-2018,926,1092
986,1979,2055,53,1979,2055,76,-2017,952,1066
987,1948,2013,45,1948,2013,65,-1980,942,1039
988,1849,1965,59,1849,1965,116,-1907,866,1040
989,1866,1947,51,1866,1947,81,-1906,892,1014
990,1877,1913,43,1877,1913,36,-1895,920,974
991,1797,1879,55,1797,1879,82,-1838,858,980
992,1797,1867,53,1797,1867,70,-1832,864,968
993,1846,1853,43,1846,1853,7,-1850,920,930
994,1815,1829,45,1815,1829,14,-1822,900,922
995,1779,1819,53,1779,1819,40,-1799,870,930
996,1829,1821,46,1829,1821,-8,-1825,918,906
997,1827,1810,42,1827,1810,-17,-1818,922,896
998,1758,1780,55,1758,1780,22,-1769,868,901
999,1807,1784,47,1807,1784,-23,-1796,915,880
1000,1847,1780,39,1847,1780,-67,-1814,957,856
1001,1785,1763,80,1785,1763,-22,-1774,904,870
1002,1791,1773,252,1791,1773,-18,-1782,904,878
1003,1843,1789,45,1843,1789,-54,-1816,948,868
1004,1812,1783,42,1812,1783,-29,-1798,920,877
1005,1783,1787,52,1783,1787,4,-1785,890,896
1006,1847,1804,46,1847,1804,-43,-1826,945,880
1007,1853,1800,43,1853,1800,-53,-1826,953,874
1008,1787,1784,55,1787,1784,-3,-1786,895,890
1009,1837,1799,47,1837,1799,-38,-1818,938,880
1010,1885,1801,39,1885,1801,-84,-1843,984,858
1011,1829,1780,55,1829,1780,-49,-1804,939,866
1012,1837,1788,51,1837,1788,-49,-1812,943,870
1013,1903,1810,41,1903,1810,-93,-1856,998,858
1014,1887,1803,43,1887,1803,-84,-1845,986,860
1015,1868,1801,53,1868,1801,-67,-1834,968,867
1016,1915,1810,44,1915,1810,-105,-1862,1010,852
1017,1927,1805,41,1927,1805,-122,-1866,1024,842
1018,1863,1800,55,1863,1800,-63,-1832,963,868
1019,1900,1813,47,1900,1813,-87,-1856,994,863
1020,1932,1813,39,1932,1813,-119,-1872,1026,847
1021,1870,1802,55,1870,1802,-68,-1836,969,867
1022,1869,1811,181,1869,1811,-58,-1840,964,876
1023,1917,1823,41,1917,1823,-94,-1870,1006,864
1024,1882,1821,43,1882,1821,-61,-1852,972,880
1025,1833,1816,53,1833,1816,-17,-1824,925,900
1026,1891,1823,45,1891,1823,-68,-1857,980,878
1027,1893,1820,40,1893,1820,-73,-1856,983,874
1028,1823,1812,55,1823,1812,-11,-1818,917,900
1029,1864,1832,51,1864,1832,-32,-1848,948,900
1030,1901,1839,41,1901,1839,-62,-1870,982,888
1031,1835,1829,55,1835,1829,-6,-1832,920,912
1032,1845,1831,51,1845,1831,-14,-1838,930,908
1033,1910,1843,42,1910,1843,-67,-1876,988,888
1034,1881,1835,45,1881,1835,-46,-1858,964,894
1035,1843,1833,52,1843,1833,-10,-1838,926,912
1036,1903,1844,47,1903,1844,-59,-1874,981,892
1037,1929,1853,43,1929,1853,-76,-1891,1002,888
1038,1886,1855,56,1886,1855,-31,-1870,958,912
1039,1944,1883,52,1944,1883,-61,-1914,1002,911
1040,1983,1893,41,1983,1893,-90,-1938,1036,902
1041,1911,1875,56,1911,1875,-36,-1893,974,920
1042,1907,1881,87,1907,1881,-26,-1894,966,928
1043,1981,1913,175,1981,1913,-68,-1947,1024,922
1044,1973,1945,51,1973,1945,-28,-1959,1000,958
1045,1939,1960,57,1939,1960,21,-1950,959,990
1046,1983,1967,48,1983,1967,-16,-1975,1000,976
1047,1971,1947,44,1971,1947,-24,-1959,998,962
1048,1894,1915,57,1894,1915,21,-1904,936,968
1049,1931,1927,53,1931,1927,-4,-1929,968,962
1050,1955,1915,43,1955,1915,-40,-1935,998,938
1051,1887,1884,55,1887,1884,-3,-1886,945,940
1052,1883,1881,52,1883,1881,-2,-1882,942,940
1053,1917,1879,42,1917,1879,-38,-1898,978,920
1054,1883,1854,45,1883,1854,-29,-1868,956,912
1055,1849,1847,52,1849,1847,-2,-1848,926,922
1056,1903,1852,47,1903,1852,-51,-1878,977,900
1057,1908,1847,41,1908,1847,-61,-1878,984,893
1058,1837,1835,57,1837,1835,-2,-1836,920,916
1059,1875,1845,47,1875,1845,-30,-1860,952,908
1060,1901,1843,41,1901,1843,-58,-1872,980,892
1061,1847,1829,55,1847,1829,-18,-1838,932,906
1062,1869,1837,51,1869,1837,-32,-1853,950,902
1063,1919,1845,137,1919,1845,-74,-1882,996,886
1064,1883,1847,46,1883,1847,-36,-1865,960,906
1065,1842,1851,54,1842,1851,9,-1846,916,930
1066,1897,1871,47,1897,1871,-26,-1884,962,922
1067,1899,1869,42,1899,1869,-30,-1884,964,920
1068,1831,1865,55,1831,1865,34,-1848,898,950
1069,1876,1881,48,1876,1881,5,-1878,936,943
1070,1917,1891,43,1917,1891,-26,-1904,972,932
1071,1909,1904,56,1909,1904,-5,-1906,957,950
1072,1948,1907,53,1948,1907,-41,-1928,994,933
1073,1949,1811,42,1949,1811,-138,-1880,1044,836
1074,1884,1695,41,1884,1695,-189,-1790,1036,753
1075,1997,1763,53,1997,1763,-234,-1880,1116,764
1076,2463,2167,55,2463,2167,-296,-2315,1380,936
1077,2743,2579,61,2743,2579,-164,-2661,1454,1208
1078,2556,2671,77,2556,2671,115,-2614,1220,1393
1079,2232,2504,67,2232,2504,272,-2368,980,1388
1080,1788,2154,48,1788,2154,366,-1971,711,1260
1081,1323,1753,53,1323,1753,430,-1538,446,1092
1082,1183,1577,44,1183,1577,394,-1380,394,986
1083,1327,1641,69,1327,1641,314,-1484,506,978
1084,1496,1832,167,1496,1832,336,-1664,580,1084
1085,1633,1989,59,1633,1989,356,-1811,638,1172
1086,1846,2127,54,1846,2127,281,-1986,782,1204
1087,1952,2165,51,1952,2165,213,-2058,870,1189
1088,1915,2121,61,1915,2121,206,-2018,854,1164
1089,1951,2085,55,1951,2085,134,-2018,908,1110
1090,1983,2065,44,1983,2065,82,-2024,950,1074
1091,1933,2035,61,1933,2035,102,-1984,916,1068
1092,1948,2043,57,1948,2043,95,-1996,926,1069
1093,2011,2056,47,2011,2056,45,-2034,983,1050
1094,1991,2035,47,1991,2035,44,-2013,974,1040
1095,1949,2027,58,1949,2027,78,-1988,936,1052
1096,2013,2039,53,2013,2039,26,-2026,994,1032
1097,2019,2029,45,2019,2029,10,-2024,1004,1020
1098,1959,2012,60,1959,2012,53,-1986,953,1032
1099,2004,2023,53,2004,2023,19,-2014,992,1021
1100,2054,2023,43,2054,2023,-31,-2038,1042,996
1101,1995,2004,59,1995,2004,9,-2000,993,1006
1102,1994,2009,56,1994,2009,15,-2002,990,1012
1103,2053,2015,46,2053,2015,-38,-2034,1046,988
1104,2015,2005,155,2015,2005,-10,-2010,1012,998
1105,1973,2007,57,1973,2007,34,-1990,970,1020
1106,2037,2025,52,2037,2025,-12,-2031,1024,1006
1107,2056,2023,47,2056,2023,-33,-2040,1044,995
1108,1995,2011,59,1995,2011,16,-2003,990,1014
1109,2041,2023,54,2041,2023,-18,-2032,1030,1002
1110,2089,2027,45,2089,2027,-62,-2058,1076,982
1111,2031,2011,58,2031,2011,-20,-2021,1026,996
1112,2043,2023,55,2043,2023,-20,-2033,1032,1002
1113,2119,2041,47,2119,2041,-78,-2080,1098,982
1114,2087,2027,48,2087,2027,-60,-2057,1074,984
1115,2040,2029,57,2040,2029,-11,-2034,1026,1009
1116,2103,2059,53,2103,2059,-44,-2081,1074,1008
1117,2121,2057,46,2121,2057,-64,-2089,1092,996
1118,2073,2055,61,2073,2055,-18,-2064,1046,1018
1119,2121,2075,55,2121,2075,-46,-2098,1084,1014
1120,2166,2089,45,2166,2089,-77,-2128,1122,1006
1121,2115,2087,61,2115,2087,-28,-2101,1072,1030
1122,2119,2104,57,2119,2104,-15,-2112,1067,1044
1123,2172,2119,47,2172,2119,-53,-2146,1112,1033
1124,2141,2105,102,2141,2105,-36,-2123,1088,1034
1125,2100,2110,307,2100,2110,10,-2105,1045,1060
1126,2143,2137,59,2143,2137,-6,-2140,1074,1066
1127,2136,2137,51,2136,2137,1,-2136,1068,1069
1128,2059,2119,62,2059,2119,60,-2089,1000,1090
1129,2079,2120,57,2079,2120,41,-2100,1019,1080
1130,2088,2100,47,2088,2100,12,-2094,1038,1056
1131,1991,2055,60,1991,2055,64,-2023,964,1060
1132,1959,2029,54,1959,2029,70,-1994,944,1050
1133,1977,2015,45,1977,2015,38,-1996,970,1026
1134,1901,1971,46,1901,1971,70,-1936,916,1020
1135,1829,1941,55,1829,1941,112,-1885,858,1026
1136,1850,1927,51,1850,1927,77,-1888,886,1002
1137,1832,1895,43,1832,1895,63,-1864,884,979
1138,1737,1854,55,1737,1854,117,-1796,810,986
1139,1759,1848,49,1759,1848,89,-1804,835,968
1140,1788,1833,39,1788,1833,45,-1810,872,939
1141,1721,1803,53,1721,1803,82,-1762,820,942
1142,1716,1798,51,1716,1798,82,-1757,817,940
1143,1771,1801,41,1771,1801,30,-1786,870,916
1144,1739,1783,45,1739,1783,44,-1761,848,914
1145,1704,1779,236,1704,1779,75,-1742,814,927
1146,1763,1797,50,1763,1797,34,-1780,864,916
1147,1765,1785,40,1765,1785,20,-1775,872,902
1148,1702,1771,53,1702,1771,69,-1736,816,920
1149,1753,1789,52,1753,1789,36,-1771,858,912
1150,1805,1791,39,1805,1791,-14,-1798,910,888
1151,1753,1773,53,1753,1773,20,-1763,866,896
1152,1763,1783,51,1763,1783,20,-1773,872,902
1153,1820,1791,41,1820,1791,-29,-1806,924,881
1154,1785,1775,40,1785,1775,-10,-1780,898,882
1155,1756,1775,51,1756,1775,19,-1766,868,897
1156,1816,1799,45,1816,1799,-17,-1808,916,891
1157,1821,1797,43,1821,1797,-24,-1809,922,886
1158,1759,1784,54,1759,1784,25,-1772,867,904
1159,1805,1802,47,1805,1802,-3,-1804,904,900
1160,1855,1803,39,1855,1803,-52,-1829,954,876
1161,1789,1785,55,1789,1785,-4,-1787,896,890
1162,1799,1801,51,1799,1801,2,-1800,898,902
1163,1854,1813,41,1854,1813,-41,-1834,948,886
1164,1831,1805,43,1831,1805,-26,-1818,928,890
1165,1789,1800,119,1789,1800,11,-1794,889,906
1166,1844,1817,229,1844,1817,-27,-1830,936,895
1167,1845,1818,45,1845,1818,-27,-1832,936,896
1168,1773,1811,55,1773,1811,38,-1792,868,924
1169,1815,1827,47,1815,1827,12,-1821,902,920
1170,1839,1832,39,1839,1832,-7,-1836,923,912
1171,1779,1815,55,1779,1815,36,-1797,872,926
1172,1784,1814,51,1784,1814,30,-1799,877,922
1173,1845,1819,43,1845,1819,-26,-1832,936,896
1174,1819,1812,43,1819,1812,-7,-1816,913,902
1175,1779,1813,53,1779,1813,34,-1796,872,924
1176,1835,1831,47,1835,1831,-4,-1833,920,914
1177,1845,1827,43,1845,1827,-18,-1836,932,904
1178,1782,1807,55,1782,1807,25,-1794,878,916
1179,1827,1814,47,1827,1814,-13,-1820,920,900
1180,1867,1816,39,1867,1816,-51,-1842,959,882
1181,1807,1801,55,1807,1801,-6,-1804,906,898
1182,1809,1815,51,1809,1815,6,-1812,902,910
1183,1863,1821,42,1863,1821,-42,-1842,952,890
1184,1829,1810,44,1829,1810,-19,-1820,924,896
1185,1787,1801,53,1787,1801,14,-1794,886,908
1186,1850,1817,183,1850,1817,-33,-1834,942,892
1187,1853,1819,43,1853,1819,-34,-1836,944,892
1188,1783,1820,55,1783,1820,37,-1802,873,928
1189,1823,1846,48,1823,1846,23,-1834,900,934
1190,1869,1849,41,1869,1849,-20,-1859,944,914
1191,1803,1827,54,1803,1827,24,-1815,890,926
1192,1817,1837,52,1817,1837,20,-1827,898,928
1193,1891,1855,45,1891,1855,-36,-1873,964,910
1194,1853,1843,44,1853,1843,-10,-1848,932,916
1195,1799,1846,53,1799,1846,47,-1822,876,946
1196,1847,1862,47,1847,1862,15,-1854,916,938
1197,1853,1849,41,1853,1849,-4,-1851,928,922
1198,1787,1832,54,1787,1832,45,-1810,871,938
1199,1831,1849,47,1831,1849,18,-1840,906,934
1200,1867,1861,41,1867,1861,-6,-1864,936,928
1201,1813,1838,55,1813,1838,25,-1826,894,932
1202,1820,1851,53,1820,1851,31,-1836,894,941
1203,1874,1867,43,1874,1867,-7,-1870,940,930
1204,1837,1849,43,1837,1849,12,-1843,912,930
1205,1813,1849,54,1813,1849,36,-1831,888,942
1206,1877,1871,114,1877,1871,-6,-1874,942,932
1207,1880,1868,150,1880,1868,-12,-1874,946,928
1208,1812,1869,57,1812,1869,57,-1840,878,963
1209,1851,1892,53,1851,1892,41,-1872,905,966
1210,1895,1897,41,1895,1897,2,-1896,946,950
1211,1835,1876,55,1835,1876,41,-1856,897,958
1212,1845,1881,53,1845,1881,36,-1863,904,958
1213,1927,1911,43,1927,1911,-16,-1919,972,948
1214,1913,1910,45,1913,1910,-3,-1912,958,954
1215,1891,1918,53,1891,1918,27,-1904,932,972
1216,1966,1949,51,1966,1949,-17,-1958,992,966
1217,1977,1951,43,1977,1951,-26,-1964,1002,962
1218,1915,1932,59,1915,1932,17,-1924,949,974
1219,1991,1963,52,1991,1963,-28,-1977,1010,968
1220,2057,1999,45,2057,1999,-58,-2028,1058,970
1221,1989,2007,58,1989,2007,18,-1998,986,1012
1222,1978,2027,56,1978,2027,49,-2002,964,1038
1223,2013,2037,47,2013,2037,24,-2025,994,1030
1224,1955,2003,46,1955,2003,48,-1979,954,1026
1225,1880,1964,57,1880,1964,84,-1922,898,1024
1226,1909,1959,52,1909,1959,50,-1934,930,1004
1227,1895,1943,135,1895,1943,48,-1919,924,996
1228,1805,1928,313,1805,1928,123,-1866,841,1026
1229,1829,1949,297,1829,1949,120,-1889,854,1034
1230,1851,1971,185,1851,1971,120,-1911,866,1046
1231,1785,1972,261,1785,1972,187,-1878,799,1080
1232,1789,1996,315,1789,1996,207,-1892,791,1102
1233,1839,2019,242,1839,2019,180,-1929,830,1100
1234,1787,2011,196,1787,2011,224,-1899,782,1118
1235,1745,2008,327,1745,2008,263,-1876,741,1136
1236,1805,2025,283,1805,2025,220,-1915,792,1122
1237,1815,2021,183,1815,2021,206,-1918,804,1114
1238,1741,2008,325,1741,2008,267,-1874,737,1138
1239,1781,2030,300,1781,2030,249,-1906,766,1140
1240,1831,2045,191,1831,2045,214,-1938,808,1130
1241,1765,2031,247,1765,2031,266,-1898,750,1148
1242,1767,2053,57,1767,2053,286,-1910,740,1170
1243,1833,2069,51,1833,2069,236,-1951,798,1152
1244,1805,2041,51,1805,2041,236,-1923,784,1138
1245,1784,2039,59,1784,2039,255,-1912,764,1147
1246,1909,2075,53,1909,2075,166,-1992,872,1120
1247,1959,2024,105,1959,2024,65,-1992,947,1044
1248,1835,1873,315,1835,1873,38,-1854,898,956
1249,1865,1814,54,1865,1814,-51,-1840,958,882
1250,2109,1951,42,2109,1951,-158,-2030,1134,896
1251,2477,2381,71,2477,2381,-96,-2429,1286,1142
1252,2671,2749,76,2671,2749,78,-2710,1296,1414
1253,2565,2775,69,2565,2775,210,-2670,1178,1492
1254,2125,2489,59,2125,2489,364,-2307,880,1426
1255,1599,2095,58,1599,2095,496,-1847,552,1296
1256,1309,1767,45,1309,1767,458,-1538,426,1112
1257,1236,1636,37,1236,1636,400,-1436,418,1018
1258,1305,1725,55,1305,1725,420,-1515,442,1072
1259,1562,1945,51,1562,1945,383,-1754,590,1164
1260,1769,2077,46,1769,2077,308,-1923,730,1192
1261,1831,2148,60,1831,2148,317,-1990,757,1232
1262,1895,2166,59,1895,2166,271,-2030,812,1218
1263,1975,2133,51,1975,2133,158,-2054,908,1146
1264,1947,2059,51,1947,2059,112,-2003,918,1086
1265,1909,2020,57,1909,2020,111,-1964,899,1066
1266,1974,2027,52,1974,2027,53,-2000,960,1040
1267,1998,2024,44,1998,2024,26,-2011,986,1025
1268,1943,2007,308,1943,2007,64,-1975,940,1036
1269,1997,2021,55,1997,2021,24,-2009,986,1022
1270,2035,2021,43,2035,2021,-14,-2028,1024,1004
1271,1982,1999,56,1982,1999,17,-1990,982,1008
1272,1997,1997,57,1997,1997,0,-1997,998,998
1273,2065,1999,46,2065,1999,-66,-2032,1066,966
1274,2038,1979,47,2038,1979,-59,-2008,1048,960
1275,2003,1971,55,2003,1971,-32,-1987,1018,970
1276,2059,1979,52,2059,1979,-80,-2019,1070,950
1277,2071,1963,45,2071,1963,-108,-2017,1090,928
1278,2007,1945,57,2007,1945,-62,-1976,1034,942
1279,2058,1961,53,2058,1961,-97,-2010,1078,932
1280,2103,1973,44,2103,1973,-130,-2038,1116,922
1281,2057,1963,58,2057,1963,-94,-2010,1076,934
1282,2068,1967,55,2068,1967,-101,-2018,1084,933
1283,2132,1974,46,2132,1974,-158,-2053,1145,908
1284,2107,1955,47,2107,1955,-152,-2031,1130,902
1285,2077,1948,55,2077,1948,-129,-2012,1103,910
1286,2143,1968,51,2143,1968,-175,-2056,1159,896
1287,2153,1971,45,2153,1971,-182,-2062,1168,894
1288,2103,1961,201,2103,1961,-142,-2032,1122,910
1289,2155,1981,285,2155,1981,-174,-2068,1164,904
1290,2199,1995,47,2199,1995,-204,-2097,1202,896
1291,2149,1980,57,2149,1980,-169,-2064,1159,906
1292,2181,2005,55,2181,2005,-176,-2093,1178,914
1293,2259,2029,49,2259,2029,-230,-2144,1244,900
1294,2235,2025,51,2235,2025,-210,-2130,1222,908
1295,2200,2029,57,2200,2029,-171,-2114,1186,929
1296,2263,2057,53,2263,2057,-206,-2160,1234,926
1297,2277,2059,51,2277,2059,-218,-2168,1248,920
1298,2223,2055,61,2223,2055,-168,-2139,1196,944
1299,2265,2073,56,2265,2073,-192,-2169,1228,940
1300,2297,2083,43,2297,2083,-214,-2190,1256,934
1301,2229,2073,59,2229,2073,-156,-2151,1192,958
1302,2221,2087,57,2221,2087,-134,-2154,1178,976
1303,2269,2099,51,2269,2099,-170,-2184,1220,964
1304,2219,2073,47,2219,2073,-146,-2146,1182,964
1305,2151,2056,59,2151,2056,-95,-2104,1123,980
1306,2183,2053,53,2183,2053,-130,-2118,1156,962
1307,2156,2013,45,2156,2013,-143,-2084,1150,935
1308,2060,1977,59,2060,1977,-83,-2018,1072,947
1309,2068,1971,243,2068,1971,-97,-2020,1082,937
1310,2057,1950,45,2057,1950,-107,-2004,1082,922
1311,1948,1908,55,1948,1908,-40,-1928,994,934
1312,1927,1899,55,1927,1899,-28,-1913,978,936
1313,1961,1885,43,1961,1885,-76,-1923,1018,904
1314,1909,1843,44,1909,1843,-66,-1876,988,888
1315,1851,1815,53,1851,1815,-36,-1833,944,890
1316,1909,1813,44,1909,1813,-96,-1861,1002,858
1317,1911,1788,41,1911,1788,-123,-1850,1017,832
1318,1839,1764,53,1839,1764,-75,-1802,957,844
1319,1875,1769,46,1875,1769,-106,-1822,990,832
1320,1909,1765,40,1909,1765,-144,-1837,1026,810
1321,1852,1735,51,1852,1735,-117,-1794,984,809
1322,1869,1738,51,1869,1738,-131,-1804,1000,804
1323,1932,1747,42,1932,1747,-185,-1840,1058,781
1324,1908,1735,42,1908,1735,-173,-1822,1040,781
1325,1877,1725,51,1877,1725,-152,-1801,1014,786
1326,1947,1749,44,1947,1749,-198,-1848,1072,776
1327,1955,1741,41,1955,1741,-214,-1848,1084,764
1328,1875,1725,52,1875,1725,-150,-1800,1012,788
1329,1909,1741,145,1909,1741,-168,-1825,1038,786
1330,1959,1759,173,1959,1759,-200,-1859,1080,780
1331,1899,1763,55,1899,1763,-136,-1831,1018,814
1332,1901,1779,51,1901,1779,-122,-1840,1012,828
1333,1963,1787,41,1963,1787,-176,-1875,1070,806
1334,1941,1771,41,1941,1771,-170,-1856,1056,800
1335,1899,1771,52,1899,1771,-128,-1835,1014,822
1336,1955,1797,46,1955,1797,-158,-1876,1056,820
1337,1960,1799,42,1960,1799,-161,-1880,1060,819
1338,1895,1779,53,1895,1779,-116,-1837,1006,832
1339,1942,1799,48,1942,1799,-143,-1870,1042,828
1340,1973,1801,41,1973,1801,-172,-1887,1072,814
1341,1895,1775,53,1895,1775,-120,-1835,1008,828
1342,1879,1775,51,1879,1775,-104,-1827,992,836
1343,1931,1785,43,1931,1785,-146,-1858,1038,820
1344,1897,1769,43,1897,1769,-128,-1833,1012,820
1345,1847,1759,52,1847,1759,-88,-1803,968,836
1346,1899,1775,45,1899,1775,-124,-1837,1012,826
1347,1909,1775,40,1909,1775,-134,-1842,1022,820
1348,1843,1762,54,1843,1762,-81,-1802,962,840
1349,1882,1775,48,1882,1775,-107,-1828,994,834
1350,1916,1785,141,1916,1785,-131,-1850,1024,827
1351,1839,1783,56,1839,1783,-56,-1811,948,864
1352,1833,1809,52,1833,1809,-24,-1821,928,892
1353,1891,1822,43,1891,1822,-69,-1856,980,876
1354,1863,1803,45,1863,1803,-60,-1833,962,872
1355,1816,1788,52,1816,1788,-28,-1802,922,880
1356,1879,1805,45,1879,1805,-74,-1842,976,866
1357,1891,1801,42,1891,1801,-90,-1846,990,856
1358,1819,1784,55,1819,1784,-35,-1802,927,874
1359,1865,1807,47,1865,1807,-58,-1836,962,874
1360,1899,1813,41,1899,1813,-86,-1856,992,864
1361,1837,1783,51,1837,1783,-54,-1810,946,864
1362,1837,1798,51,1837,1798,-39,-1818,938,880
1363,1898,1817,41,1898,1817,-81,-1858,990,868
1364,1870,1806,43,1870,1806,-64,-1838,967,871
1365,1827,1800,52,1827,1800,-27,-1814,927,886
1366,1886,1816,45,1886,1816,-70,-1851,978,873
1367,1895,1809,41,1895,1809,-86,-1852,990,862
1368,1827,1791,53,1827,1791,-36,-1809,932,878
1369,1869,1813,48,1869,1813,-56,-1841,962,878
1370,1909,1819,94,1909,1819,-90,-1864,1000,864
1371,1847,1804,53,1847,1804,-43,-1826,945,880
1372,1850,1831,53,1850,1831,-19,-1840,934,906
1373,1907,1849,43,1907,1849,-58,-1878,982,896
1374,1875,1839,45,1875,1839,-36,-1857,956,902
1375,1833,1845,53,1833,1845,12,-1839,910,928
1376,1895,1863,46,1895,1863,-32,-1879,964,916
1377,1907,1850,43,1907,1850,-57,-1878,982,896
1378,1849,1839,56,1849,1839,-10,-1844,930,914
1379,1891,1861,51,1891,1861,-30,-1876,960,916
1380,1931,1864,41,1931,1864,-67,-1898,999,898
1381,1879,1843,55,1879,1843,-36,-1861,958,904
1382,1886,1851,52,1886,1851,-35,-1868,960,908
1383,1947,1868,44,1947,1868,-79,-1908,1013,894
1384,1915,1861,44,1915,1861,-54,-1888,984,904
1385,1884,1851,53,1884,1851,-33,-1868,958,909
1386,1957,1870,47,1957,1870,-87,-1914,1022,892
1387,1967,1868,43,1967,1868,-99,-1918,1033,884
1388,1899,1851,57,1899,1851,-48,-1875,974,902
1389,1944,1869,51,1944,1869,-75,-1906,1010,897
1390,1983,1878,43,1983,1878,-105,-1930,1044,886
1391,1930,1868,227,1930,1868,-62,-1899,996,903
1392,1930,1885,54,1930,1885,-45,-1908,988,920
1393,2001,1926,46,2001,1926,-75,-1964,1038,926
1394,1990,1931,46,1990,1931,-59,-1960,1024,936
1395,1971,1939,55,1971,1939,-32,-1955,1002,954
1396,2055,1964,47,2055,1964,-91,-2010,1073,936
1397,2069,1961,43,2069,1961,-108,-2015,1088,926
1398,1991,1944,57,1991,1944,-47,-1968,1019,948
1399,2037,1988,53,2037,1988,-49,-2012,1043,970
1400,2101,2027,45,2101,2027,-74,-2064,1088,976
1401,2053,2027,57,2053,2027,-26,-2040,1040,1000
1402,2041,2041,57,2041,2041,0,-2041,1020,1020
1403,2084,2043,47,2084,2043,-41,-2064,1062,1001
1404,2017,2009,48,2017,2009,-8,-2013,1012,1000
1405,1939,1976,55,1939,1976,37,-1958,951,1006
1406,1975,1973,48,1975,1973,-2,-1974,988,986
1407,1972,1961,43,1972,1961,-11,-1966,992,975
1408,1889,1937,57,1889,1937,48,-1913,920,992
1409,1913,1937,53,1913,1937,24,-1925,944,980
1410,1947,1929,41,1947,1929,-18,-1938,982,956
1411,1891,1909,181,1891,1909,18,-1900,936,964
1412,1875,1910,53,1875,1910,35,-1892,920,972
1413,1908,1918,45,1908,1918,10,-1913,949,964
1414,1879,1913,45,1879,1913,34,-1896,922,974
1415,1834,1911,56,1834,1911,77,-1872,878,994
1416,1883,1927,46,1883,1927,44,-1905,920,986
1417,1897,1912,44,1897,1912,15,-1904,941,964
1418,1835,1894,56,1835,1894,59,-1864,888,976
1419,1880,1911,51,1880,1911,31,-1896,924,971
1420,1925,1919,42,1925,1919,-6,-1922,966,956
1421,1865,1897,57,1865,1897,32,-1881,916,964
1422,1869,1901,53,1869,1901,32,-1885,918,966
1423,1941,1917,45,1941,1917,-24,-1929,982,946
1424,1927,1913,45,1927,1913,-14,-1920,970,950
1425,1944,1939,55,1944,1939,-5,-1942,974,967
1426,2025,1910,51,2025,1910,-115,-1968,1070,898
1427,1979,1773,41,1979,1773,-206,-1876,1092,784
1428,1910,1688,53,1910,1688,-222,-1799,1066,733
1429,2153,1844,51,2153,1844,-309,-1998,1231,768
1430,2629,2315,53,2629,2315,-314,-2472,1472,1000
1431,2761,2655,75,2761,2655,-106,-2708,1434,1274
1432,2575,2682,293,2575,2682,107,-2628,1234,1394
1433,2203,2451,61,2203,2451,248,-2327,978,1350
1434,1686,2063,51,1686,2063,377,-1874,654,1220
1435,1289,1722,51,1289,1722,433,-1506,428,1078
1436,1245,1625,45,1245,1625,380,-1435,432,1002
1437,1383,1738,39,1383,1738,355,-1560,514,1046
1438,1516,1929,57,1516,1929,413,-1722,552,1171
1439,1723,2073,53,1723,2073,350,-1898,686,1212
1440,1897,2169,47,1897,2169,272,-2033,812,1220
1441,1911,2159,61,1911,2159,248,-2035,832,1204
1442,1927,2125,57,1927,2125,198,-2026,864,1162
1443,1975,2091,51,1975,2091,116,-2033,930,1104
1444,1945,2065,51,1945,2065,120,-2005,912,1092
1445,1911,2063,59,1911,2063,152,-1987,880,1108
1446,1980,2077,53,1980,2077,97,-2028,942,1087
1447,1997,2069,47,1997,2069,72,-2033,962,1070
1448,1933,2043,59,1933,2043,110,-1988,912,1076
1449,1973,2059,57,1973,2059,86,-2016,944,1072
1450,2011,2059,45,2011,2059,48,-2035,982,1054
1451,1952,2036,59,1952,2036,84,-1994,934,1060
1452,1952,2035,175,1952,2035,83,-1994,934,1059
1453,2007,2045,51,2007,2045,38,-2026,984,1042
1454,1975,2040,48,1975,2040,65,-2008,955,1052
1455,1940,2039,59,1940,2039,99,-1990,920,1069
1456,2003,2059,53,2003,2059,56,-2031,974,1058
1457,2019,2043,47,2019,2043,24,-2031,998,1034
1458,1962,2025,60,1962,2025,63,-1994,950,1044
1459,2012,2037,54,2012,2037,25,-2024,994,1031
1460,2063,2043,43,2063,2043,-20,-2053,1042,1012
1461,2011,2024,56,2011,2024,13,-2018,999,1018
1462,2029,2029,56,2029,2029,0,-2029,1014,1014
1463,2093,2037,47,2093,2037,-56,-2065,1074,990
1464,2071,2019,51,2071,2019,-52,-2045,1062,984
1465,2025,2007,56,2025,2007,-18,-2016,1022,994
1466,2093,2029,51,2093,2029,-64,-2061,1078,982
1467,2117,2036,45,2117,2036,-81,-2076,1099,978
1468,2063,2023,60,2063,2023,-40,-2043,1052,992
1469,2117,2057,57,2117,2057,-60,-2087,1088,998
1470,2171,2075,46,2171,2075,-96,-2123,1134,990
1471,2116,2059,57,2116,2059,-57,-2088,1086,1001
1472,2119,2071,59,2119,2071,-48,-2095,1084,1012
1473,2173,2087,181,2173,2087,-86,-2130,1130,1000
1474,2149,2089,53,2149,2089,-60,-2119,1104,1014
1475,2110,2094,60,2110,2094,-16,-2102,1063,1039
1476,2173,2117,55,2173,2117,-56,-2145,1114,1030
1477,2195,2110,47,2195,2110,-85,-2152,1140,1012
1478,2125,2095,60,2125,2095,-30,-2110,1078,1032
1479,2167,2117,55,2167,2117,-50,-2142,1108,1034
1480,2213,2131,46,2213,2131,-82,-2172,1148,1024
1481,2139,2111,61,2139,2111,-28,-2125,1084,1042
1482,2133,2120,57,2133,2120,-13,-2126,1073,1054
1483,2170,2126,51,2170,2126,-44,-2148,1107,1041
1484,2109,2100,51,2109,2100,-9,-2104,1059,1046
1485,2035,2079,57,2035,2079,44,-2057,996,1062
1486,2065,2075,53,2065,2075,10,-2070,1028,1042
1487,2026,2040,46,2026,2040,14,-2033,1006,1027
1488,1909,1992,57,1909,1992,83,-1950,913,1038
1489,1914,1979,53,1914,1979,65,-1946,924,1022
1490,1927,1961,41,1927,1961,34,-1944,946,998
1491,1829,1917,56,1829,1917,88,-1873,870,1002
1492,1790,1898,54,1790,1898,108,-1844,841,1003
1493,1827,1885,133,1827,1885,58,-1856,884,972
1494,1785,1861,45,1785,1861,76,-1823,854,968
1495,1737,1853,53,1737,1853,116,-1795,810,984
1496,1785,1861,46,1785,1861,76,-1823,854,968
1497,1788,1837,43,1788,1837,49,-1812,870,943
1498,1710,1803,55,1710,1803,93,-1756,808,948
1499,1749,1799,45,1749,1799,50,-1774,850,924
1500,1800,1797,40,1800,1797,-3,-1798,902,897
1501,1751,1781,52,1751,1781,30,-1766,860,906
1502,1753,1788,51,1753,1788,35,-1770,859,912
1503,1815,1803,43,1815,1803,-12,-1809,914,896
1504,1781,1778,43,1781,1778,-3,-1780,892,888
1505,1749,1768,51,1749,1768,19,-1758,865,894
1506,1821,1789,45,1821,1789,-32,-1805,926,878
1507,1833,1787,40,1833,1787,-46,-1810,940,870
1508,1763,1765,55,1763,1765,2,-1764,880,884
1509,1804,1771,48,1804,1771,-33,-1788,918,869
1510,1851,1784,40,1851,1784,-67,-1818,959,858
1511,1803,1773,53,1803,1773,-30,-1788,916,872
1512,1814,1785,52,1814,1785,-29,-1800,922,878
1513,1869,1799,53,1869,1799,-70,-1834,970,864
1514,1833,1787,159,1833,1787,-46,-1810,940,870
1515,1786,1800,55,1786,1800,14,-1793,886,907
1516,1845,1821,45,1845,1821,-24,-1833,934,898
1517,1863,1824,39,1863,1824,-39,-1844,951,892
1518,1803,1805,55,1803,1805,2,-1804,900,904
1519,1837,1820,50,1837,1820,-17,-1828,927,902
1520,1881,1829,41,1881,1829,-52,-1855,966,888
1521,1819,1807,53,1819,1807,-12,-1813,916,898
1522,1818,1812,53,1818,1812,-6,-1815,912,903
1523,1868,1823,43,1868,1823,-45,-1846,956,889
1524,1839,1809,43,1839,1809,-30,-1824,934,890
1525,1806,1803,53,1806,1803,-3,-1804,904,900
1526,1853,1819,47,1853,1819,-34,-1836,944,892
1527,1851,1815,40,1851,1815,-36,-1833,944,890
1528,1780,1799,55,1780,1799,19,-1790,880,909
1529,1813,1819,47,1813,1819,6,-1816,904,912
1530,1854,1829,40,1854,1829,-25,-1842,940,902
1531,1785,1810,53,1785,1810,25,-1798,880,918
1532,1786,1811,51,1786,1811,25,-1798,880,918
1533,1852,1819,43,1852,1819,-33,-1836,942,893
1534,1829,1804,143,1829,1804,-25,-1816,927,890
1535,1783,1811,53,1783,1811,28,-1797,878,920
1536,1837,1835,47,1837,1835,-2,-1836,920,916
1537,1839,1835,43,1839,1835,-4,-1837,922,916
1538,1769,1817,55,1769,1817,48,-1793,860,932
1539,1821,1835,51,1821,1835,14,-1828,904,924
1540,1877,1839,41,1877,1839,-38,-1858,958,900
1541,1817,1823,53,1817,1823,6,-1820,906,914
1542,1821,1829,53,1821,1829,8,-1825,906,918
1543,1893,1839,43,1893,1839,-54,-1866,974,892
1544,1865,1829,45,1865,1829,-36,-1847,950,896
1545,1828,1823,53,1828,1823,-5,-1826,916,909
1546,1893,1845,47,1893,1845,-48,-1869,970,898
1547,1899,1840,43,1899,1840,-59,-1870,979,890
1548,1823,1821,56,1823,1821,-2,-1822,912,910
1549,1873,1839,53,1873,1839,-34,-1856,954,902
1550,1913,1849,41,1913,1849,-64,-1881,988,892
1551,1849,1831,52,1849,1831,-18,-1840,934,906
1552,1851,1837,55,1851,1837,-14,-1844,932,912
1553,1905,1849,43,1905,1849,-56,-1877,980,896
1554,1880,1835,73,1880,1835,-45,-1858,962,895
1555,1837,1832,291,1837,1832,-5,-1834,921,914
1556,1893,1863,53,1893,1863,-30,-1878,962,916
1557,1899,1867,43,1899,1867,-32,-1883,966,918
1558,1833,1849,57,1833,1849,16,-1841,908,932
1559,1879,1863,51,1879,1863,-16,-1871,948,924
1560,1927,1864,41,1927,1864,-63,-1896,995,900
1561,1869,1847,55,1869,1847,-22,-1858,946,912
1562,1869,1862,53,1869,1862,-7,-1866,938,928
1563,1925,1876,44,1925,1876,-49,-1900,987,914
1564,1880,1853,45,1880,1853,-27,-1866,954,913
1565,1823,1851,55,1823,1851,28,-1837,898,940
1566,1883,1871,47,1883,1871,-12,-1877,948,930
1567,1901,1869,42,1901,1869,-32,-1885,966,918
1568,1833,1861,57,1833,1861,28,-1847,902,944
1569,1869,1877,51,1869,1877,8,-1873,930,942
1570,1913,1882,41,1913,1882,-31,-1898,972,926
1571,1861,1867,53,1861,1867,6,-1864,928,936
1572,1879,1881,54,1879,1881,2,-1880,938,942
1573,1957,1903,45,1957,1903,-54,-1930,1006,924
1574,1950,1909,45,1950,1909,-41,-1930,996,934
1575,1930,1919,227,1930,1919,-11,-1924,970,954
1576,2003,1960,53,2003,1960,-43,-1982,1023,958
1577,2005,1963,43,2005,1963,-42,-1984,1024,960
1578,1931,1947,57,1931,1947,16,-1939,958,982
1579,1993,1980,53,1993,1980,-13,-1986,1003,984
1580,2055,2025,45,2055,2025,-30,-2040,1042,998
1581,1997,2031,57,1997,2031,34,-2014,982,1032
1582,1989,2057,57,1989,2057,68,-2023,960,1062
1583,2023,2063,51,2023,2063,40,-2043,992,1052
1584,1957,2013,47,1957,2013,56,-1985,950,1034
1585,1881,1979,55,1881,1979,98,-1930,892,1038
1586,1909,1975,51,1909,1975,66,-1942,922,1020
1587,1892,1959,45,1892,1959,67,-1926,912,1013
1588,1791,1931,57,1791,1931,140,-1861,826,1036
1589,1821,1941,54,1821,1941,120,-1881,850,1030
1590,1855,1933,42,1855,1933,78,-1894,888,1006
1591,1800,1903,55,1800,1903,103,-1852,848,1003
1592,1799,1909,55,1799,1909,110,-1854,844,1010
1593,1844,1917,45,1844,1917,73,-1880,886,995
1594,1811,1899,45,1811,1899,88,-1855,862,994
1595,1767,1881,99,1767,1881,114,-1824,826,998
1596,1823,1891,219,1823,1891,68,-1857,878,980
1597,1833,1900,168,1833,1900,67,-1866,883,984
1598,1758,1899,57,1758,1899,141,-1828,808,1020
1599,1802,1929,53,1802,1929,127,-1866,838,1028
1600,1851,1935,43,1851,1935,84,-1893,884,1010
1601,1803,1915,55,1803,1915,112,-1859,846,1014
1602,1811,1926,54,1811,1926,115,-1868,848,1020
1603,1877,1933,47,1877,1933,56,-1905,910,994
1604,1883,1931,47,1883,1931,48,-1907,918,990
1605,1903,1947,56,1903,1947,44,-1925,930,996
1606,1964,1899,51,1964,1899,-65,-1932,1014,917
1607,1918,1761,41,1918,1761,-157,-1840,1038,802
1608,1881,1705,53,1881,1705,-176,-1793,1028,764
1609,2201,1941,51,2201,1941,-260,-2071,1230,840
1610,2665,2424,57,2665,2424,-241,-2544,1453,1092
1611,2699,2684,77,2699,2684,-15,-2692,1357,1334
1612,2446,2639,75,2446,2639,193,-2542,1126,1416
1613,2068,2358,59,2068,2358,290,-2213,889,1324
1614,1568,1944,45,1568,1944,376,-1756,596,1160
1615,1228,1641,48,1228,1641,413,-1434,408,1027
1616,1251,1587,168,1251,1587,336,-1419,458,962
1617,1419,1757,157,1419,1757,338,-1588,540,1048
1618,1532,1944,57,1532,1944,412,-1738,560,1178
1619,1717,2092,57,1717,2092,375,-1904,671,1234
1620,1889,2185,45,1889,2185,296,-2037,796,1240
1621,1891,2163,60,1891,2163,272,-2027,810,1218
1622,1891,2117,57,1891,2117,226,-2004,832,1172
1623,1941,2086,53,1941,2086,145,-2014,898,1116
1624,1917,2053,51,1917,2053,136,-1985,890,1094
1625,1895,2040,57,1895,2040,145,-1968,875,1092
1626,1973,2063,53,1973,2063,90,-2018,942,1076
1627,1998,2057,47,1998,2057,59,-2028,970,1058
1628,1933,2027,59,1933,2027,94,-1980,920,1060
1629,1975,2031,55,1975,2031,56,-2003,960,1044
1630,2019,2027,45,2019,2027,8,-2023,1006,1018
1631,1958,1999,58,1958,1999,41,-1978,958,1020
1632,1960,2005,55,1960,2005,45,-1982,958,1025
1633,2023,2017,47,2023,2017,-6,-2020,1014,1006
1634,2003,1997,47,2003,1997,-6,-2000,1004,996
1635,1964,1983,55,1964,1983,19,-1974,972,1001
1636,2028,1997,101,2028,1997,-31,-2012,1030,983
1637,2040,1995,150,2040,1995,-45,-2018,1042,975
1638,1963,1989,59,1963,1989,26,-1976,968,1008
1639,2005,2009,55,2005,2009,4,-2007,1000,1006
1640,2053,2010,45,2053,2010,-43,-2032,1048,984
1641,1983,1989,57,1983,1989,6,-1986,988,998
1642,1989,1991,55,1989,1991,2,-1990,994,996
1643,2063,2011,47,2063,2011,-52,-2037,1058,980
1644,2039,2003,47,2039,2003,-36,-2021,1038,984
1645,1997,2001,56,1997,2001,4,-1999,996,1002
1646,2066,2020,53,2066,2020,-46,-2043,1056,987
1647,2089,2013,45,2089,2013,-76,-2051,1082,968
1648,2037,1998,59,2037,1998,-39,-2018,1038,980
1649,2091,2019,53,2091,2019,-72,-2055,1082,974
1650,2150,2035,45,2150,2035,-115,-2092,1132,960
1651,2107,2025,57,2107,2025,-82,-2066,1094,972
1652,2117,2036,55,2117,2036,-81,-2076,1099,978
1653,2183,2063,50,2183,2063,-120,-2123,1152,972
1654,2157,2055,51,2157,2055,-102,-2106,1130,976
1655,2126,2056,59,2126,2056,-70,-2091,1098,993
1656,2197,2077,55,2197,2077,-120,-2137,1158,978
1657,2207,2084,135,2207,2084,-123,-2146,1165,980
1658,2149,2083,61,2149,2083,-66,-2116,1108,1008
1659,2186,2108,57,2186,2108,-78,-2147,1132,1015
1660,2213,2119,46,2213,2119,-94,-2166,1154,1012
1661,2141,2099,59,2141,2099,-42,-2120,1092,1028
1662,2137,2104,59,2137,2104,-33,-2120,1085,1036
1663,2185,2115,51,2185,2115,-70,-2150,1128,1022
1664,2129,2089,47,2129,2089,-40,-2109,1084,1024
1665,2039,2068,59,2039,2068,29,-2054,1005,1048
1666,2057,2059,53,2057,2059,2,-2058,1028,1030
1667,2027,2019,47,2027,2019,-8,-2023,1018,1006
1668,1927,1980,57,1927,1980,53,-1954,937,1016
1669,1929,1968,53,1929,1968,39,-1948,945,1004
1670,1943,1945,43,1943,1945,2,-1944,970,974
1671,1853,1895,53,1853,1895,42,-1874,906,968
1672,1832,1873,53,1832,1873,41,-1852,896,957
1673,1881,1866,44,1881,1866,-15,-1874,948,926
1674,1839,1831,43,1839,1831,-8,-1835,924,912
1675,1785,1807,51,1785,1807,22,-1796,882,914
1676,1837,1814,47,1837,1814,-23,-1826,930,896
1677,1839,1791,89,1839,1791,-48,-1815,944,872
1678,1771,1773,295,1771,1773,2,-1772,884,888
1679,1806,1789,55,1806,1789,-17,-1798,912,886
1680,1843,1802,41,1843,1802,-41,-1822,942,880
1681,1797,1778,53,1797,1778,-19,-1788,908,880
1682,1797,1771,47,1797,1771,-26,-1784,912,872
1683,1849,1771,43,1849,1771,-78,-1810,964,846
1684,1829,1752,41,1829,1752,-77,-1790,953,838
1685,1787,1749,51,1787,1749,-38,-1768,912,856
1686,1848,1765,47,1848,1765,-83,-1806,966,841
1687,1867,1763,41,1867,1763,-104,-1815,986,830
1688,1805,1753,54,1805,1753,-52,-1779,928,850
1689,1849,1774,47,1849,1774,-75,-1812,962,850
1690,1893,1781,39,1893,1781,-112,-1837,1002,834
1691,1835,1763,53,1835,1763,-72,-1799,954,846
1692,1835,1772,52,1835,1772,-63,-1804,949,854
1693,1909,1797,43,1909,1797,-112,-1853,1010,842
1694,1897,1786,43,1897,1786,-111,-1842,1004,838
1695,1863,1781,53,1863,1781,-82,-1822,972,850
1696,1929,1801,47,1929,1801,-128,-1865,1028,836
1697,1950,1801,41,1950,1801,-149,-1876,1050,826
1698,1892,1784,265,1892,1784,-108,-1838,1000,838
1699,1935,1811,53,1935,1811,-124,-1873,1030,844
1700,1973,1828,41,1973,1828,-145,-1900,1059,842
1701,1907,1813,53,1907,1813,-94,-1860,1000,860
1702,1901,1818,53,1901,1818,-83,-1860,992,868
1703,1963,1831,43,1963,1831,-132,-1897,1048,850
1704,1935,1821,45,1935,1821,-114,-1878,1024,854
1705,1886,1813,54,1886,1813,-73,-1850,980,870
1706,1939,1827,47,1939,1827,-112,-1883,1026,858
1707,1951,1823,41,1951,1823,-128,-1887,1040,848
1708,1881,1811,56,1881,1811,-70,-1846,976,870
1709,1903,1819,47,1903,1819,-84,-1861,994,868
1710,1939,1823,41,1939,1823,-116,-1881,1028,854
1711,1879,1801,55,1879,1801,-78,-1840,978,862
1712,1882,1809,53,1882,1809,-73,-1846,978,868
1713,1941,1828,42,1941,1828,-113,-1884,1027,858
1714,1911,1813,43,1911,1813,-98,-1862,1004,858
1715,1861,1803,54,1861,1803,-58,-1832,960,872
1716,1915,1816,47,1915,1816,-99,-1866,1007,858
1717,1925,1806,41,1925,1806,-119,-1866,1022,844
1718,1861,1789,167,1861,1789,-72,-1825,966,858
1719,1901,1817,253,1901,1817,-84,-1859,992,866
1720,1933,1835,43,1933,1835,-98,-1884,1016,868
1721,1865,1823,55,1865,1823,-42,-1844,954,890
1722,1868,1837,52,1868,1837,-31,-1852,950,903
1723,1931,1849,43,1931,1849,-82,-1890,1006,884
1724,1901,1835,45,1901,1835,-66,-1868,984,884
1725,1853,1830,53,1853,1830,-23,-1842,938,904
1726,1915,1845,51,1915,1845,-70,-1880,992,888
1727,1939,1839,42,1939,1839,-100,-1889,1020,870
1728,1875,1819,55,1875,1819,-56,-1847,966,882
1729,1913,1836,51,1913,1836,-77,-1874,995,880
1730,1963,1845,40,1963,1845,-118,-1904,1040,864
1731,1903,1827,55,1903,1827,-76,-1865,990,876
1732,1909,1835,51,1909,1835,-74,-1872,992,880
1733,1963,1855,43,1963,1855,-108,-1909,1036,874
1734,1929,1848,44,1929,1848,-81,-1888,1005,884
1735,1877,1839,52,1877,1839,-38,-1858,958,900
1736,1929,1849,47,1929,1849,-80,-1889,1004,884
1737,1927,1844,42,1927,1844,-83,-1886,1005,880
1738,1850,1830,57,1850,1830,-20,-1840,935,905
1739,1893,1851,203,1893,1851,-42,-1872,968,904
1740,1935,1870,163,1935,1870,-65,-1902,1000,902
1741,1866,1869,229,1866,1869,3,-1868,932,936
1742,1845,1887,309,1845,1887,42,-1866,902,964
1743,1887,1913,243,1887,1913,26,-1900,930,970
1744,1853,1909,189,1853,1909,56,-1881,898,982
1745,1803,1913,325,1803,1913,110,-1858,846,1012
1746,1851,1945,283,1851,1945,94,-1898,878,1020
1747,1867,1961,178,1867,1961,94,-1914,886,1028
1748,1799,1951,315,1799,1951,152,-1875,824,1052
1749,1835,1976,300,1835,1976,141,-1906,847,1058
1750,1878,1993,187,1878,1993,115,-1936,882,1054
1751,1823,1981,245,1823,1981,158,-1902,832,1070
1752,1824,2005,59,1824,2005,181,-1914,822,1093
1753,1893,2019,47,1893,2019,126,-1956,884,1072
1754,1875,1997,47,1875,1997,122,-1936,876,1060
1755,1849,1997,58,1849,1997,148,-1923,850,1072
1756,1933,2017,55,1933,2017,84,-1975,924,1050
1757,1945,2006,44,1945,2006,61,-1976,942,1034
1758,1866,1977,60,1866,1977,111,-1922,878,1044
1759,1899,1983,136,1899,1983,84,-1941,908,1034
1760,1961,2018,167,1961,2018,57,-1990,952,1038
1761,1911,2045,59,1911,2045,134,-1978,888,1090
1762,1895,2068,57,1895,2068,173,-1982,861,1120
1763,1930,2068,46,1930,2068,138,-1999,896,1103
1764,1896,2029,51,1896,2029,133,-1962,882,1081
1765,1843,2007,57,1843,2007,164,-1925,840,1086
1766,1884,2004,53,1884,2004,120,-1944,882,1062
1767,1879,1975,46,1879,1975,96,-1927,892,1036
1768,1801,1940,59,1801,1940,139,-1870,831,1040
1769,1835,1944,51,1835,1944,109,-1890,863,1026
1770,1867,1939,43,1867,1939,72,-1903,898,1006
1771,1805,1903,55,1805,1903,98,-1854,854,1000
1772,1788,1901,53,1788,1901,113,-1844,838,1007
1773,1846,1897,43,1846,1897,51,-1872,898,974
1774,1819,1878,45,1819,1878,59,-1848,880,968
1775,1773,1868,54,1773,1868,95,-1820,839,982
1776,1845,1877,52,1845,1877,32,-1861,906,954
1777,1867,1867,41,1867,1867,0,-1867,934,934
1778,1805,1848,57,1805,1848,43,-1826,881,946
1779,1839,1863,51,1839,1863,24,-1851,908,944
1780,1895,1870,147,1895,1870,-25,-1882,960,922
1781,1839,1855,53,1839,1855,16,-1847,912,936
1782,1837,1870,53,1837,1870,33,-1854,902,952
1783,1897,1883,44,1897,1883,-14,-1890,956,934
1784,1877,1867,45,1877,1867,-10,-1872,944,928
1785,1852,1865,55,1852,1865,13,-1858,920,939
1786,1968,1898,47,1968,1898,-70,-1933,1019,914
1787,1981,1838,41,1981,1838,-143,-1910,1062,848
1788,1849,1703,54,1849,1703,-146,-1776,998,778
1789,1907,1669,46,1907,1669,-238,-1788,1072,716
1790,2213,1869,41,2213,1869,-344,-2041,1278,762
1791,2595,2343,63,2595,2343,-252,-2469,1424,1046
1792,2729,2665,75,2729,2665,-64,-2697,1396,1300
1793,2568,2635,63,2568,2635,67,-2602,1250,1351
1794,2101,2333,56,2101,2333,232,-2217,934,1282
1795,1571,1927,55,1571,1927,356,-1749,608,1142
1796,1317,1625,41,1317,1625,308,-1471,504,966
1797,1279,1533,36,1279,1533,254,-1406,512,894
1798,1357,1674,53,1357,1674,317,-1516,520,996
1799,1591,1896,51,1591,1896,305,-1744,643,1100
1800,1804,2031,95,1804,2031,227,-1918,788,1129
1801,1879,2118,245,1879,2118,239,-1998,820,1178
1802,1937,2131,317,1937,2131,194,-2034,872,1162
1803,1997,2101,55,1997,2101,104,-2049,946,1102
1804,1960,2054,50,1960,2054,94,-2007,933,1074
1805,1911,2026,57,1911,2026,115,-1968,898,1070
1806,1979,2039,54,1979,2039,60,-2009,960,1050
1807,2009,2039,47,2009,2039,30,-2024,990,1034
1808,1947,2011,61,1947,2011,64,-1979,942,1038
1809,1983,2011,55,1983,2011,28,-1997,978,1020
1810,2035,2013,43,2035,2013,-22,-2024,1028,996
1811,1980,1991,56,1980,1991,11,-1986,984,1001
1812,1989,1993,55,1989,1993,4,-1991,992,998
1813,2054,2002,45,2054,2002,-52,-2028,1053,975
1814,2025,1980,49,2025,1980,-45,-2002,1035,968
1815,1983,1972,56,1983,1972,-11,-1978,997,980
1816,2053,1983,52,2053,1983,-70,-2018,1062,956
1817,2073,1973,43,2073,1973,-100,-2023,1086,936
1818,2009,1956,60,2009,1956,-53,-1982,1031,952
1819,2065,1976,53,2065,1976,-89,-2020,1077,944
1820,2122,1981,45,2122,1981,-141,-2052,1132,920
1821,2068,1963,219,2068,1963,-105,-2016,1086,929
1822,2063,1981,311,2063,1981,-82,-2022,1072,950
1823,2119,2013,48,2119,2013,-106,-2066,1112,954
1824,2089,2013,51,2089,2013,-76,-2051,1082,968
1825,2041,2013,56,2041,2013,-28,-2027,1034,992
1826,2119,2029,53,2119,2029,-90,-2074,1104,970
1827,2143,2024,47,2143,2024,-119,-2084,1131,952
1828,2075,2011,59,2075,2011,-64,-2043,1070,974
1829,2123,2035,55,2123,2035,-88,-2079,1106,974
1830,2182,2044,45,2182,2044,-138,-2113,1160,953
1831,2133,2029,57,2133,2029,-104,-2081,1118,962
1832,2136,2055,57,2136,2055,-81,-2096,1108,987
1833,2201,2073,51,2201,2073,-128,-2137,1164,972
1834,2171,2071,53,2171,2071,-100,-2121,1136,986
1835,2131,2076,57,2131,2076,-55,-2104,1093,1010
1836,2202,2101,55,2202,2101,-101,-2152,1152,1000
1837,2227,2101,49,2227,2101,-126,-2164,1176,988
1838,2153,2093,61,2153,2093,-60,-2123,1106,1016
1839,2184,2111,57,2184,2111,-73,-2148,1128,1019
1840,2221,2120,47,2221,2120,-101,-2170,1161,1010
1841,2159,2101,167,2159,2101,-58,-2130,1108,1022
1842,2152,2111,301,2152,2111,-41,-2132,1096,1035
1843,2202,2141,245,2202,2141,-61,-2172,1132,1040
1844,2139,2139,202,2139,2139,0,-2139,1070,1070
1845,2045,2139,330,2045,2139,94,-2092,976,1116
1846,2075,2154,285,2075,2154,79,-2114,998,1116
1847,2044,2151,191,2044,2151,107,-2098,968,1129
1848,1927,2129,319,1927,2129,202,-2028,862,1166
1849,1929,2131,308,1929,2131,202,-2030,864,1166
1850,1945,2123,211,1945,2123,178,-2034,884,1150
1851,1846,2079,236,1846,2079,233,-1962,806,1156
1852,1809,2063,314,1809,2063,254,-1936,778,1158
1853,1833,2056,253,1833,2056,223,-1944,805,1140
1854,1783,2022,197,1783,2022,239,-1902,772,1130
1855,1723,1999,325,1723,1999,276,-1861,724,1138
1856,1785,2003,281,1785,2003,218,-1894,784,1110
1857,1799,1990,183,1799,1990,191,-1894,804,1090
1858,1719,1957,63,1719,1957,238,-1838,740,1098
1859,1765,1960,53,1765,1960,195,-1862,785,1078
1860,1816,1944,45,1816,1944,128,-1880,844,1036
1861,1754,1902,54,1754,1902,148,-1828,803,1025
1862,1753,1883,270,1753,1883,130,-1818,812,1006
1863,1813,1885,229,1813,1885,72,-1849,870,978
1864,1790,1883,47,1790,1883,93,-1836,848,988
1865,1745,1875,55,1745,1875,130,-1810,808,1002
1866,1815,1881,52,1815,1881,66,-1848,874,974
1867,1837,1867,43,1837,1867,30,-1852,904,948
1868,1767,1831,56,1767,1831,64,-1799,852,948
1869,1813,1835,51,1813,1835,22,-1824,896,928
1870,1873,1836,41,1873,1836,-37,-1854,955,900
1871,1829,1805,53,1829,1805,-24,-1817,926,890
1872,1827,1803,54,1827,1803,-24,-1815,926,890
1873,1902,1819,44,1902,1819,-83,-1860,992,868
1874,1879,1797,43,1879,1797,-82,-1838,980,858
1875,1832,1787,51,1832,1787,-45,-1810,938,871
1876,1900,1813,46,1900,1813,-87,-1856,994,863
1877,1917,1807,41,1917,1807,-110,-1862,1014,848
1878,1836,1778,54,1836,1778,-58,-1807,947,860
1879,1864,1785,50,1864,1785,-79,-1824,972,853
1880,1912,1790,41,1912,1790,-122,-1851,1017,834
1881,1855,1773,51,1855,1773,-82,-1814,968,846
1882,1845,1772,156,1845,1772,-73,-1808,959,850
1883,1903,1784,153,1903,1784,-119,-1844,1011,832
1884,1875,1781,45,1875,1781,-94,-1828,984,844
1885,1823,1775,53,1823,1775,-48,-1799,936,864
1886,1891,1800,47,1891,1800,-91,-1846,991,854
1887,1909,1797,41,1909,1797,-112,-1853,1010,842
1888,1830,1772,53,1830,1772,-58,-1801,944,857
1889,1863,1787,47,1863,1787,-76,-1825,970,856
1890,1915,1798,41,1915,1798,-117,-1856,1016,840
1891,1865,1773,51,1865,1773,-92,-1819,978,840
1892,1861,1779,53,1861,1779,-82,-1820,972,848
1893,1914,1786,43,1914,1786,-128,-1850,1021,829
1894,1897,1760,44,1897,1760,-137,-1828,1017,812
1895,1846,1736,51,1846,1736,-110,-1791,978,813
1896,1908,1759,46,1908,1759,-149,-1834,1028,805
1897,1931,1769,41,1931,1769,-162,-1850,1046,804
1898,1853,1755,55,1853,1755,-98,-1804,976,828
1899,1895,1766,47,1895,1766,-129,-1830,1012,818
1900,1943,1780,40,1943,1780,-163,-1862,1053,808
1901,1876,1763,47,1876,1763,-113,-1820,994,825
1902,1861,1766,52,1861,1766,-95,-1814,978,836
1903,1928,1790,185,1928,1790,-138,-1859,1033,826
1904,1893,1785,45,1893,1785,-108,-1839,1000,838
1905,1823,1783,51,1823,1783,-40,-1803,932,872
1906,1867,1804,47,1867,1804,-63,-1836,965,870
1907,1867,1806,43,1867,1806,-61,-1836,964,872
1908,1789,1785,55,1789,1785,-4,-1787,896,890
1909,1833,1803,51,1833,1803,-30,-1818,932,886
1910,1879,1809,41,1879,1809,-70,-1844,974,870
1911,1811,1781,50,1811,1781,-30,-1796,920,876
1912,1798,1784,53,1798,1784,-14,-1791,906,885
1913,1849,1810,43,1849,1810,-39,-1830,944,886
1914,1832,1807,43,1832,1807,-25,-1820,928,891
1915,1791,1800,53,1791,1800,9,-1796,891,904
1916,1861,1815,47,1861,1815,-46,-1838,954,884
1917,1881,1809,42,1881,1809,-72,-1845,976,868
1918,1810,1788,55,1810,1788,-22,-1799,916,883
1919,1850,1815,47,1850,1815,-35,-1832,942,890
1920,1908,1819,41,1908,1819,-89,-1864,998,865
1921,1845,1799,52,1845,1799,-46,-1822,946,876
1922,1833,1815,53,1833,1815,-18,-1824,926,898
1923,1897,1835,126,1897,1835,-62,-1866,980,886
1924,1869,1832,43,1869,1832,-37,-1850,953,898
1925,1810,1837,53,1810,1837,27,-1824,892,932
1926,1869,1863,50,1869,1863,-6,-1866,938,928
1927,1887,1863,43,1887,1863,-24,-1875,956,920
1928,1823,1845,57,1823,1845,22,-1834,900,934
1929,1865,1861,51,1865,1861,-4,-1863,934,928
1930,1928,1867,41,1928,1867,-61,-1898,994,903
1931,1879,1848,52,1879,1848,-31,-1864,955,908
1932,1869,1852,55,1869,1852,-17,-1860,943,918
1933,1919,1869,45,1919,1869,-50,-1894,984,910
1934,1895,1861,45,1895,1861,-34,-1878,964,914
1935,1846,1868,53,1846,1868,22,-1857,912,945
1936,1911,1897,48,1911,1897,-14,-1904,962,942
1937,1942,1895,43,1942,1895,-47,-1918,994,924
1938,1884,1882,56,1884,1882,-2,-1883,943,940
1939,1941,1911,53,1941,1911,-30,-1926,986,940
1940,1981,1929,45,1981,1929,-52,-1955,1016,938
1941,1901,1909,53,1901,1909,8,-1905,946,958
1942,1895,1935,54,1895,1935,40,-1915,928,988
1943,1975,1977,45,1975,1977,2,-1976,986,990
1944,1947,1996,166,1947,1996,49,-1972,949,1022
1945,1873,2003,59,1873,2003,130,-1938,872,1066
1946,1903,2021,51,1903,2021,118,-1962,892,1070
1947,1907,2007,47,1907,2007,100,-1957,904,1054
1948,1816,1964,57,1816,1964,148,-1890,834,1056
1949,1834,1960,55,1834,1960,126,-1897,854,1043
1950,1869,1959,43,1869,1959,90,-1914,890,1024
1951,1802,1927,55,1802,1927,125,-1864,838,1026
1952,1771,1916,53,1771,1916,145,-1844,813,1030
1953,1827,1926,44,1827,1926,99,-1876,864,1012
1954,1800,1903,45,1800,1903,103,-1852,848,1003
1955,1745,1892,54,1745,1892,147,-1818,799,1020
1956,1797,1899,49,1797,1899,102,-1848,848,1000
1957,1801,1891,43,1801,1891,90,-1846,856,990
1958,1720,1876,55,1720,1876,156,-1798,782,1016
1959,1755,1891,52,1755,1891,136,-1823,810,1014
1960,1807,1901,41,1807,1901,94,-1854,856,998
1961,1745,1881,54,1745,1881,136,-1813,804,1008
1962,1742,1883,54,1742,1883,141,-1812,800,1012
1963,1819,1898,45,1819,1898,79,-1858,870,988
1964,1802,1883,135,1802,1883,81,-1842,860,982
1965,1754,1881,52,1754,1881,127,-1818,814,1004
1966,1819,1907,52,1819,1907,88,-1863,866,998
1967,1847,1919,45,1847,1919,72,-1883,888,996
1968,1823,1934,57,1823,1934,111,-1878,856,1022
1969,1891,1918,53,1891,1918,27,-1904,932,972
1970,1882,1805,41,1882,1805,-77,-1844,980,864
1971,1803,1689,47,1803,1689,-114,-1746,958,788
1972,1961,1789,51,1961,1789,-172,-1875,1066,808
1973,2449,2249,53,2449,2249,-200,-2349,1324,1024
1974,2683,2643,69,2683,2643,-40,-2663,1362,1302
1975,2504,2686,76,2504,2686,182,-2595,1161,1434
1976,2175,2475,69,2175,2475,300,-2325,938,1388
1977,1703,2090,51,1703,2090,387,-1896,658,1238
1978,1235,1703,53,1235,1703,468,-1469,384,1086
1979,1144,1567,43,1144,1567,423,-1356,360,995
1980,1301,1671,35,1301,1671,370,-1486,466,1020
1981,1435,1863,53,1435,1863,428,-1649,504,1146
1982,1591,2013,57,1591,2013,422,-1802,584,1218
1983,1798,2137,53,1798,2137,339,-1968,730,1238
1984,1852,2149,53,1852,2149,297,-2000,778,1223
1985,1821,2101,295,1821,2101,280,-1961,770,1190
1986,1875,2079,58,1875,2079,204,-1977,836,1142
1987,1885,2059,45,1885,2059,174,-1972,856,1116
1988,1819,2035,60,1819,2035,216,-1927,802,1126
1989,1867,2045,54,1867,2045,178,-1956,844,1112
1990,1934,2056,45,1934,2056,122,-1995,906,1089
1991,1892,2028,57,1892,2028,136,-1960,878,1082
1992,1890,2027,57,1890,2027,137,-1958,876,1082
1993,1959,2036,51,1959,2036,77,-1998,941,1056
1994,1943,2019,51,1943,2019,76,-1981,934,1048
1995,1894,2003,57,1894,2003,109,-1948,892,1056
1996,1967,2010,53,1967,2010,43,-1988,962,1026
1997,1995,2002,46,1995,2002,7,-1998,994,1004
1998,1929,1980,59,1929,1980,51,-1954,939,1016
1999,1973,2005,55,1973,2005,32,-1989,970,1018
